1874186918821875187918721888187418711874188118901876187318741881187318701882187918731881189318731885187618671880187718751877187118831871188518801876188218861892187718791879187618911880188518731884188618711877187918771886186618791876188618821878188318891874188518831884188918771881187718811887188018651880187718791888188318721876187718751874189018731872189418811879187818691876187718801870188118781875186718851884188118681887187718811878187618691893187218761891188618871882186518791887186718881875187718671881187318811883188018851882187418791885188118701876187618531890188518831889189418791872187518721892187018931890186618881892185818791881187118791873187318701886187418901883186818791873188118771867188118711885188118811875188118771881188818791868188718821879187618871885187518741877188518791865187818641887188718721888187618751883188418901879189518781885187318871880188918751869187418841869186118771887187818751880187418801877187918801871189118731892188018861879187518801890189018891884186918821877186918771883186918771872188818711877187918801883187718821881187818691886189118841873188118831877189618801878187518811887186518901885188118671878188518861884188318791892188318801877187718741880188918731881187618831886187918741876187018811887188618761873187818721873188818741879187818761888188018771881188318891889188818851877188618751887188018841885187518831881187418881885188018801881187818871886188118841893187718901889188718791880188118951885187418791884189318911874189118711891188718881879187918851876188718911880186518851894188618891896187818871879189418941885189118971878189018861897188418871880188718781884188118841890188018771893188318741875187518781880187818841882188918771879187818911888189018841894187018771882188018681880187218881872187718741879187818751877188418751874187818861871189018791870186718681887188718821878187418861870189318801881187818811874187318931879187618881880187218721888187818831881187718741883186618751881189318801889189618711873188718801880186918701868188218721880187818881876188418831872187618721873188518721870189018691884189318681885187618791893187218751886187918781882186518721869187918771884188918831879186418741879187918971878187718881897188618911873188418661877189318751882190018741877188318881883186618871866186918861875187218821874189018751874187518771873188618681866187618631875187418751890187718751869186118751862188018741881187618691869186918801867187318681881186818751871186418721887187118701869187618781860186418661861186618741862186618671880187718571872187118741875186018621868186918721870186118821868186118711861185118731866187818801876186618541871187518681869186718601868186618561883187818771876187318681880185918631883186318731881187418741853187818851867187118591873188118571861187718651867187218751866188618741868186418731878188718601877187618651872188718861869186218661865187618701879186618841874188918701880186618641872187218741881187318681868188318681874187818781879187418811873187818731869186418821880187818741860187018741875188218791863187718761883186118781871187718791871187818781869186418831883186518771874186018711860187518691876187418801867187618871881187718741880186318621877186818751862188618631879187718621873186218761871187718661866187818751873187318691874187318651874186518691882187818771862187118781869188018761866187518741876186518771880187118651888187818671877187718601878188518721871187818621881187618821884187118581867188018651875186718741873187518771873187418691868187718711863188118661882187918731867187418681886186318801879186518771874186618681877187518881882187318681856187718701860186718691875186218831867186918691865187818611860186818831879186318781863187818811867186318651881186618651874188118811857187518661867187318701869186318751873186918691879187318721871188518641861186718611858188918791874187718621866186418721875186918871873186618651885187018721883186718711873188718811871187418721866187618851879187318701873188018781875187618641877188418721883188118671889187118901872187018801877187818851880187918711878189118771881
1884186818651878188218801882189018811873188318681869187718681875187118861876187918751883187118801883188218931869187818621881187018711875188418671881187218751888188718821873188718891883187818701871187718881869187318771879187918671884186718821879186718891873188318741882187318851888187918781870186318841869187518641868188918681871186318841882187118721879187618771872188018711881187818711875188318781877189318751870188718631881187618811878186518661885185918711865187918771880188218711886188118661884188318611868188118781878187218811862188218691859186818601873187818711884187718791865186818781865186118801870187618681877186718821886187618791865188518711877187118651871187218761875187018671869187218701869188418801873187618861879187518651887188018851868186818801876187618801887187218761875188118761870188318651874186518811877187518831875187718711877188718841867187918661873186918661861187718811878187418801864188018761865188118731877186618731877187418861895188618761876186918781876186518791880188718671873187518871879189418791880188318731869186818671868187818841884187618871873186918711882187618781881188718891889186518811880186618911868188218871861186918791872188718811888188218871889188518751901187218691877189218651885188318811871187318841890188318841892187818871885187618821875186918731886187718861880188518741878187918821881188318721876187718751892187618961863188218911886188218761878188018821874187318711879187318761884188418821880188318671886187718851886189318801874188518771879187918681891187618751878188118941888188718891878188018831884186718871876187918831878187518851877187618901883187218801891187418901873187118811878189318891884188318871886188118781875188118851876188018851881188318791868188318851894187318781886187418891892188918621879188118791882189418831881188018821889187918801877188718781887187518781875190318821886187718881879187718771877188118741884188818741881187818711884189318971876187918781877187718731881188018911874188118831875187918841887188018791879188618751889187218801885187018811869188418921887188418791877187518831882188418801892188218761887188718871883188318861885187918751871188118881890188318751883189418861878188018811874187418791879188118851882186718711879187118771889187518891880188418861872189018801876188018721888186918691888187818831879188418791884188218771886188718791881188218821891187218641883187918771881188718681886186918861874188718721876188718741889188418811887188018871874187318771888187018791876187418721880188418691874187718741877187418761870188618821881188518811879188618731885188418901882188618751887186918761873186818861879188718801884187518731889188518831880188218791888188218841893188418751886188318731892187818931882187318811884188518791876187018841883187018781871188918851875188318681894187718761879187918751878188118881879188418791877187618811886189318741881187718721880186818881886188018821883189118801878188618951885187718721883188218721880186718811885188418791878187418911878186418811879187118791882188318781879188018861883188218741872187318781891187718801884188418831873188518671876187018881878187218721872188418701872188918751872188018821890189218811869187918811878187818711878187618791880187718861885188518781878188518791876186918781882187118781889187318691875187418861873188418621871189218621889187518671871187818711873186418731874185818701870187218741880186318651879187418651882187618581882187318701883185818701865186018631856187418741871187518841864186718551865186518651859187518561863186418641873185718601869186818741873186918621854186518631865187518661867185218671869187118691861186318581862186418601869186218601858186118751858185718601862186118671867186318561870186318621857185618681870186118681864186718551867186818541859186318611858186818571862186718691861187118691864185618581867185618671865185918591865187218551860186118651874185918641862185818621863187118751860186918571863185918661861185618611860186718741867186218561860185918711873187518641866186218681865187218651867185818621850186118701869187618681871185018711865186018561860
1853186318661854186218611858187318671873185618621858185918621859186418641860187918731853187718621858187018741844186018641868186418681853185618651858185618661860186418641857187918611856186318491865187018631850187118631846185818681869185518711871186118611867186518751866186918711868186218631855186818571853185018561859186518451868185418671857186418451855185118701850186018701856186618701873186818631861186818581876186518611872185818631867185318581872187218701863185718651865184518581868186218741862185818621852186718591854186318761859187018531852186318591856186518521857186718561857187118521857185918661846185418571860185618661865186318591859185518541855186418471872185418631864186518671863187018681854187018681868186118691865186818711862185718631863187518661862187018801868186218761867185518661872186918671856185518791882185618541859187018651851187618521865185418591865185418581863186718711859186018641863185618671868187918681869185518591859185618761869185718641858187518691861186518731870187318641860186518531875187018721864186918611870186518611862186518601862186218731879186918671874186218571861186118691867186318781870187318711868187218621869186918701864187218551869186218511854185618741864187418581876186718661864185618611863186118591845185518591861185918781866185718711869186518691861184718601870187318641856185718671866185918621870185318591871185618671857187418601861185818641862186618611867186318741860186318591868185418621853186118661849187118571863186718571863186918651869186518671875186218751867187318631862187318731859187118711863185518551862186118531859186718701866186418801865186518591860186718711871186918711865186918641867186518711867187018631866186618821867186518801867187418631853187218761859186718711879185418841849186518731846185618641870186118741866187418681871187218781855185918771871186518631865187318711867187018821871187318771869187218661871187518741887186918721874186618671875187218821871187418791874187618601865186818571878186418731882187818811861186718641871186718561885186418621881186518751865186618781863186718631861186518681858187018721866187218711872187418711872187318661883187718851878185718551881186118781867187818691869187218671868187818661872185218681866187618781867186618611852186518671863181718711868186218661872186018571871186318781871187518621855186618591868186918631870185318711852188018741881186218821876187218831864186618691864184418811861185318821869187418661871186118581863186718651878187718661872186918631879186918591849187318661859187718601868186518801879187518691878187418711869186518671866186818721862186718811873187018621853188418761882188018711881187618891876188318721883186118731869186418571856187518771871186618841866187918761877187118691853186118751867186918721871185518801880185718661873187818771870187218671839186018821867186418641871187718721863185118811883187118541850186518751845186718681869188218741871187318711885187318761868187118651881187118801867186518731863188218801868186818721859186118691867187518791868186718671884187118761872187118711881185718721874187118691866186618511880188718781866188718701861187218741870188718681877188618711873187418891872186618691871184218801867187518781875187418751863187618731880186418711859185918761875181918691878187018911861185218761861188118831865186518731880187618661875187718831872187718471873185318591870187518691856187318741850188318781870186618621880185518671856187418711865186918761872187118631867187318791869186918641870185318741863187318561843187518731861187918761876186518681848186718751866187418671872186918681857186518791869187418701877183618721871187918771864185718671864187418571860186918621858185618621864186918511866186818631868185718781856186118641886187118711879186518531860186818561882186618631873187118641857185818731865186618691869187018651883186918651864189318581857187618721855186118521876186618561863186418721862185218601869186018611868185918701866186118711862188118601863186918721865186118811865186818691880187918621868187718771883186818821864187318621869188118591871187718661860
1875187718641881187718561869186918701866186718621866186618771866186218731881187418851878187218671874188118761874187618751873186918611871187518651872185918651875187318691876187018781871186818681871185818781883187618631878186818821876187918611871187618811877187518781868187418631877187518731876188418701877186218671872186618631864186618711865185818721865186718711868186818751868186418791862186818651868186618691868188118711871187418711869186918681875187518691876187218721879186018691878187918751883187718841874187618781878186718771880187518801864187618711884188118811879187218621874186718751877189018921891188918691884188418711874187918761882187518711866188618701870187418771889187818801879187618681869188318801877186818721873187918771861186718641880187918801890187918731884187818901876188018821870187718721883188318771886188518891883188118921870188318681866188418831887188118861893188118891880189318831879189118841872187618801882186518901885187918851876188318871875188518781882188118711882187718891886189018781882187518831894188618731879188118841887187218761889188618751886189118901871188418841874187218701886188118801884187918741877187318691884188318831879187118751881187518731872188118851874188718881887187918851884187718801889189018791883187718871900188418801887187918781880187918901891187418811885188918841890188818871879188618911895188419031877188718971881188718811896188318851898188818771884189718841879188818901885189318771894187118891880187718901887188118851881189018961892188218721898188618961879189618891869189818791898189218761882189318861889188618931895189418991874189318891888188518801894188718811890188518851887188818881886187318931875187718891885188418831887188518761886187918871874187518811873187618811883187718931872188918791888187718801886189518821885188618791879188718801869187218881882187618631882187918741886188018741885189118821879187318781872188718831881188018781891187618801872188118691883188218811879188018771878188818701871187918791882188718731889187618851883188418951886188418721877187818851879188418761881187718731887187918861886188618751891187518761894187618791882187918651877189018791878188018701873187418761885187618701876187518821877187318801868188018801878188618791881186918701876186818661870187218611873186818721886186718791883188518581873187418751881187118671871187718621873186918631873188718731886187118741872187618751879188018821874188118731873187418751876186818741867187018631868187118771862187118841867187218721871186518651858188018641871186518801865186718561866187018641873186618711872186218641864186218771874187318821862186618721869186518721873187518561864186218841868186518711877186918661877187018841865187318701875186818691872187118621876186118801863186918631864186618701862186518531869186518771866186118711874187718661863186018721875186818801876186318791874186418781868187818661875186318641871187518651863187718761871187618661880186618701886187518781870188218691876187118701874186918761873185818601874185518751873186818721867186318781881187318701871186918731864186818621861187218781868187618731868188318701871186318721874186318691873186918591857186418701875187018621860188518631855186918611861186718721869186618661860186518661850187618681862187818711866186618781875186918601862185918691871187318641857185818591878186318611870186118651870186818651860186518821881187618781846185718591858187218781845186518751861185818651861185718531859187218791864186018511867186418471846186118661856187118691866186518841847185318611869185718671866186618581866186818321868185918561871187118511857186218641861186618711861185318641855186318481843186418581869186618681856186718511851186818551875186518511866185718631858185418561861185818661847185818581858186318591867185218501841184218641857185118571860184618591862185618621862185718521853185218691855185518771872185718631867186318711875185518501874185718601862186018491855185218581867186818561862185718471871185418631849185518631865186118511862186618571861185118521861185918561850185818581861185518561864184718431863185318601859
1864185618611860184518571856185718571865185218621861185318571856185618511862187018561862184618491866186118641863185218571853185918541858186618601862185918531865186018571857185918591848185818511839184318631870185818691854185618521856186018561849185818531865185718591855186418491839184218441843184718491853185418571838184418531848185418531843186018461845184718551847184618511844184818541858184718471861185018561846184118431858184418451843184918411858185018501847185118491854185518391845184218231856185518531848184718421842184518421841183718361859185118411850183318381851183718471843184618391840184618411837185918441839183718441846185318461847183218501844184318431848184718521845182918581846183118411835183918401849184018501833185118471848183918491834184818351843184318341834184418431847185018571849184618471849183418371841183818521850184018491842184618421850185718421835183818511835184418511856184518571850183618441843184018551856185218371838184418451832184718481841182818351846185718461853185118501831183418501844184518511858184018391848183818551835184518551839184218611851184018311848183118471838184718611853184518551851184918381852184118541844184718551852185718471837185618521853185718541852184318451850184218521858184518591846186118421849185718551854185818591845185118571851184818641859186218601862185618461863186518611864186418751855186618451844186418521849186518651857185018561863186018711868185218611867185318481865185018511860185618601855186118431864185918481851185318601859185118531856185518621857185518571853185818621860185818601861185918691852185418601856186518491851185718531854185518621855185018531861185918611854185318631845185418681858185518511851186018531861185718571860185818651859185018551854186118591852186518641859184918511848185618411866186018561858186418621857186018601862187618491859186918531864186318491860186618681859186418731855186318611860186718531859186018581875185718571864187018651852186118571860186718571871185918591851186318521864185718511848185118571857185418631856186418691867184518591868186618671862185418611866185818591872187018421846187818691868185818601856185218541849185518641862185318731860185518751866184818571859185618581866186218561866186018621857186318601856184718691861185618601859186218451859186618671851186318561865185018711868187118601854185118571854185818531868185718551868186918541861187218671863186218531864186118521857185718471865185718551859185718601858186818701858185018491846187018531863185718631857186618551867186718601853185118601862185718581847185618631853185818481859187318541868185718581848185618591852185518681861185118531873186318631863187018471863186818511843185918571852185418621852185818651849186318671849185418511853185818541860185718561849184818451865185618461849184418491848186218501848184818451850185818601853184718421854186218581856185818611860185218531856185918591854184818591857184818611856185718681857184518421857184118471864184718501847184518451869185418561862184618571864186418441856186618561864186518551859185318661845184518491842184818531853185718551856185718421863184518421854185118471852184018491849185718511865186418511852184318401843185718541856184518481856185018461857185618421850184518511843186618631844183818551848185418401850186118481862184018511836185318511844185318541840184918431834185918401851185718401852185018501857186518411841185118551852185118531838184318551843184318481850184018391852185718561848184818471847184718471835184218551854184018481854184918491846184418431863185218471854185918511843185018401857183618441844185418551838185618511836184218471847184518481848184918441853184118411847184018491849185318461836185018411838184118361849185218611851184618561837184418371851184718421845184818411849183818331846184018271838183818421842183518451848184518441840184418421840184918461847183718441844183718571849184518371854184018531843184818461838185318341828185018481841183618581847184618341842185018461849184318511851185018531841184918401843184618571849183518371838184518341844183918461845185118461843183418541827
1834184518461830184118341841183418391834184118361837182818271837183618371848184518431849184018331837183818411830183418321844184218351825182818431837183118331838184118501834183718391842184118351841184518421852183318461847182818461846184418511836182618521831181818331837183618251835184518321832182818361827184618431832183418391827183018441836183818241851182318261821183518471830182718471828184118321842182918291847182818331836183318311839182618251834183518331847183118301837183018301848183318201831181218461825182918221842182518361824184218391834183218191831183518361838183618341824182318341833182818261826183518211836182618451837181918211813182418221833183218311835183918291829183518361835184318291834183518291840184018321832182518431843184018271848183918431847184018371830183118391845183418361829183718241846183118401838183718371853183918411826184518501836184018371839185918341846184418481831183218501836183418331841184818391844185418401853182718481849185018461847183818361847184418351835184318411839183818401837183218481844184118551849183518561839183618511830183818411838183718321853184018361845185118521835185018381838184918611854186118471849184718471835183318321844184818471858184718521847183418561849186218581840185218471835183618521836185818521851186018481854185218431851185818621837183318381850184718531843184118501851183718451853185018621857184218631852184518601841185118541862185518471848184718521853185218391857185118471858184418461850184918471851185818351851184918371856184318491841186118451843184618431864185118421858185218451845186118441853184318451858184718471863185018561850185518461866185018671860187018531866185218661856184718591849185718441850185518501858185318511854185718571857184218531852185018611855184618341853184618501865184918421849186818511841185018621846185818531848185018531844184618521858185718511855184218551847184918301841185718571847185418441846184018431841184318601850185118461849183518531840183918481845185518531845184418441850183118521842184518381841183918451840182918361840184618451835183618341836184118351851184318431840183818511839183818401835183918501827183818541844183718471845185018351839184218471818184118291833183918321821183418391840183318351827182618221830183218361843184718311844183318211827183718341830183018391831183518271829183418421829183118251836181818331835182818341847184118351818183818301836182618461839183818421824183818211829184118351842183418241829183418401820182918401831182918261842184318301823182118251839183218211822182918291825181918291828183518331838182718271837181618241821183418381830182718271840183418151842183818251835182118161829181318341821183518251829182918371826183418301825182818311819182818191830183118251815182118321824182918221826182718321833183318391824182818191827182018251817182818311844182518181831183218311827182918201835182818271825183018261821181718351812182118261825183518341817182518251810182118331834183218191833183118351828182218331831183118241833182818221821182818311837184018211833182718311817183118391818182818231824182418201833182018311831183418251830182818211825183018261823182918191826182518321838182618181829182118141822182518171818182418191830182418321835182218211823182318171832183018151828183118221825182218301826182018241822182118231839182418211828182618191833182918171822182618271828181218191819183518311819182418261828183218371821181718361827183218261830182018251824182118241824180918121842182318291814183118381827182918291821182518291825182518091819183618211821182718211813184118321827183218321836181318221810181118181822181518201812181618121822182618151822182318091813182918111822181718231836182018171834182418331826183118191831183918191833181918251829182918231836183118311837182718241833182118221829183218271822182418241824183718291830183218361829182118191832182518231813183118291829182418321827182418331830182018321826183118301827182318341832182218371811182818271822182918121827182418401838182118291831183118301832183018281840183618211823181618321834181418171817183118241843182318341818183918291824
1817181818221820182318241822182918231823181718231819182018321814180918231832182018191822181418201814183618291835182218311827182918161817182418211815182518231830182318261818182818271827182118171822183218301837183018161832183418181825183918331819183218141811182418271834181818281829183018241826181618301816181718141828183818201820182018321820182318261827182718251830181418271839182818141826183318121820182918161820181518281812184118261836182118291824181118101837181018311824181918281821181317951833182718281812182518131827181618161827180718101816181418231819181618251821183018351822182018121803181818211821182018241825181418241811181818301810182618211805181018311833182418341825181318191823182018271811181318241822183118251838181818211808180918201819181418191823181518221825182118351826181918131811180818211821181518151814180818161808181718211811182018011811180518191807182418181820181018171812181718121820181318141807181418161822181818141817181218161808181618041825180618221824182518131816181218151826181918101811181818171811181718311818181318071801180018121803180518151806183018051816181818151801181318191811182818251824181818291817181218171811181818291810180818171813181218241825181418141817182618131815182018171815182418101815181218071809182418301819181418261821181718341812181718201826181218211818182218161814181118171812181818171828182618051821181818081810182518141819181318261807183118261828181518251817181518241808181618141818182118061822182918181812181618131818182018131821182618161819181518121824181718151810182718131815182818281834183018131809180818151832182318171808182818111827182818181827180718271815181018261829181118241803180618261836182818181817182718211813181918161810181818271819182018161815182918231825181918151815180618241812182918261808180918241817182818191817181018281824181018101821181218151822180718211818181318241823180418111824182118131830181218201814181618091817182518171814182018041827181918151812180118161813180918081817181418281820181418211813180518021809182518111801181918111816180418051812181218061804182118101819180918131823181218081830181218051803182118171816181118151809182518171828182118081814181518221816181318161824182318221812182118161821181718071809181918081810181818061818182118121826181918011802182018101820182218151816181218231816182018091812182318181811181018121821182218201819182218241805182018101818181618141810181218151809182018231812181418171819181918221819180718261812181418161812181318231812181518251816182118181804182018111806181918151828182018071813180318171809182618181818182418111829181718121821181418051799180918171814181018201819181518051812181918151814182218111808180518021820181618211826182318171828180918211818181618131818180918161818181218281808181718131806180218201826181618151813180618041812182218191816180918091804181718181796181518161806180318061810181018281819180818241810181118061824182118221806181118071808179118211809181218091810180618181803180517991806182018131797180418101819180618031807181018151813180218141807180118111810180618191816179418031798182617981808181618121811181718101802182018161815181218081817180618151827180918131819180418131819181118041819181518211822181018111809181118061806180918241811181418011820181718031813181518211819180618091817180418151808181618161820181518101804181718091803181418131820180118161815181318211807180918091808181318111795179918091810180618081814180318111800181418121807180818081803181218081816180718061806181418191805180417981812180418051807179418121822180218051800179818141792179517951812181518071805181318141803180218101802179018031816179918111802179618051803181818011807179718011789180518091800180118001805180218151809180817991801180718041806180017941800180318041809178917971806180818011805180318041796181118101807179717981809179318061792181918091799180018011792180718041803181617911791179118001805180018111806180818151804179618021801180318131808179818101809179818131798179717921814179518011793179018121814180017961807180218021802180218001805180618131811181918011790179618111808180917981809
1810180817921798180618031808180717971795180318091793179818111798179918031796180017931808179717991802179517911804179717981800179117971799180317851800180117991807180418121808178817881799181617981810179818111814180918151800180917961805181018041816178517931801179617951783180418411797181617971793180517971798179517921807179718051800179517791798179018111798179918011802180017891801181117921804180518081793179918011796180018061803180217901799180818151808179417991806179517981805178917941797178817851786180117991800180917911786179917881800180318091803179417881790180218041796180417971796179317951791178118021791180818001789179717961790180118001796180218081806180118091813179317971795180518081790180917831786180118001803180618051804181218021812178818111805178818051794180518061806178717901801180517961790179117921808179418111800181218111795179817931795180817921785179618101810180518051792179618061808180618161798178418061806180117941791181417971808179817901806178418071800180518111802180718051818180118021803180018021791180617921798181618101809179118111800179418011796180418131792181018031805180918001806180617971812180618011813181418191801180318191813181818141806181018051803181018071823181218071814180317961812181718111810181518101814181218131809181218081802181718181808181818071805181418021803180218151807181018161813180518051813181618141803180318091827180418111813180818041810180617981809181518051819180318111815180618211799181418121807182218211810181918141815179418181806180018141808180418071812180818051808180918181805180518041822181118001810180218011827179718021809182117991812181518191821181818051806181318071812181317991803182518071803181618121810180918131813180818151804180818191810182718091816181718091819180418101805180518151800182218091803181518091808181418121807181518091809181218131810181318151824181818051812180318021809181918111802180018091820181918181814182018181804180618041813181018121806181618151807182018111818179818141812180818171817180918121821181518081805180218061810180918081793180017921813181118071795180618011789180918091796180517891791180517891793179717951797180517881795179418041804178418051808180017961804179117941803180217811811180117991801180817921797180018071783179818011800180117971804178518131794179517881790178517951802178917871801178718011788178418031797179817901804178917961784179317911799180017961794180418031798179517891780179717991790179817961802179117891787178717971792179617891787179817811796179417851786177917861800179017881789179217841799179617941784179617921794178417841789178717871791177917831783179018031797178817961800179618001791178217931789179117851802178217941794178917921802179817961779180017841799179817991793178318011802178117991779179417971795178417881795178918021780180017991796179917951787179517891787180317971785178517991803178217921801179817871801178217951801179617861797179117981795179217891796179918001786178717971795180017961798178818041790178518011789179217881793179017971788179917881797178218051795179917941798180217831782179117911778179717861806178417881781178917861787180218011782180217881799179617791795178617851789178717901792178417961790179817981799179117881793178317901798178417851787178117941778179517811794179717921789178817871777178917901793180017841785178217971798177917881783179717781781177517901792178117821775179117851792179617931777178917981782179318011797178917871784180417881793179118011796178717911784179117911797179017971796178117981788179117971786179517841791178717871782178717801789178918021791178517911796178417931782178717881798179817981795178517891786178318031786179017951799180017901793178217861785177617971791178917941790180318041789178617881788177917871797178917821781179417911786178918001809179417861792178917871785178417941796177817871795179017931796178417861791178918051798179017961790178817931782178417911786179118021796178217831784180017991789178517851790178517921804178217831780178617931783179317991789179317851790178017951795178617831781179117821793178617841795178117721781179217911779179217921788178017891773
1778177617801774177317771788179117731778179017741780178017741777178417831776179417771791178517851787179117781780178917831782177817601769178617901784178317821783177917831777178317901789177217861784179117791791179717841794177817831777179117841781177617831781177617731773178017911783177317841783178617711785177517831775176917761789177517761787177217841781177717921784177917851782178917831773177317871780178517821783178717911778178017781789177117871780177917681806176817811773177317661776178517721772178217821774178017831771177217731779177917781792177517781788176317791784178517871767177817661769178217831777177717871791177817691778178117711782178617801769176917711771177717811783177717901781177617751777178717821794178817771793177917831778178217751792179117751775177617861781177417831783177917881774177217741784177517741784178517791791177717851783177617831784179617911776177317961782177817771786178417931788178817931785178617831781178317841785177317811791177917811786178717881781178317831783179317841784177917761790178717761793178817891783178117941781178217791789178417761778177817721778177717721775177817891790178117831792178117771791178617771781179017751784178817901794177717841780178217821786177817851783178417791782177717771786177717781779178017791785177717721779179117801793178917821780178517851788178217741781178617751780178517901781177717731788177817851777178417901787178317701784179217791782177717871775179017881793178917891781177917731782178617911792178317911790178317871779178217811774178617881783178517841777178117761775178717801793178517861773178917891784177617891782179517711789179417781782178817921777178917851778178317891786179217871784178117881780178517821784178917721781177917871782178217821781177217881787178017841788178317801796177017891789178117871780178317821794178317801793178117781786178217811774178917761788178317751789179817891786178917741790178517821774178717871796179117891781179017911791179317861792178717891781179817811792179517871784178217841787178417831780178717861779179117781794179317851771179617901791179217801799178117961794178817961783179517951790178418001791178917901798179717951795178817971786177818061796180517971804179017871790179817991787179417901783180517971800178717921791178717871804179017911797179517931798179717871799177717951802179317881806179317981792178917961796179417891782180017921803180417891801179017881795179817981784178617861795178717821801178517991796178817921789180117931794179117931801180317951801178017931785178718011793178017751788178717781782178818031790178317921793178217981794180017931790179317881791178417971785179317901793179717851791179517831794179817951800179317901797178417921799178717861787179117941805179317941796179917941800179717941786179617971785179717991794179317951798179817811794179917851790180017881797179117831798179817941791178917931792180517991799178517911795179618061796178617971790179417941791179618021804179718001793180317851806180217871797179718051798179117971798179118021798179218021803180617921794179117821784179918031800179517961793179517991803180117951794179817891809179317951790180018081799179218061800179717951795180217991795179217971801179618021809180618041805179418021793179118021806180117961796179117991797180818091800179917941798179917961797179517971801181018041791180318111788180118101792178518111812180118031812179817951798179617971812180617981806179818081809180118071804180917981806179618031800180518021818181418031803179818041809181018061801180918091810180318021813180118101805181118061800179717971793180618031806181217981812180018011801180618101811180718071805180518051808180718071802180218051797181418051806181017961802181017971808180317971790180418071799180218031800180517971801180318041809180517951798180018021806180518091801179918041799180818031801181018121810179418011809180018171809180318001802181118051791179418011799179618021804180318051814180918101810181218051809181318081801180718091794179918011808179717981800181618051813181118041798181118031804180218131806181018031804179718091805180618011814
1808179917961812181318031803180717981800180918081810180618211797180618121806180618051807181018091800181218031815181318071818181218101811181918091800181118071799181218161811180518171816180518151808182118091818182318191813180418101813180818051817180918111797180618131806180818091812180318041804180218131818180218091813180418041805181018131817180818151806181718181809182018091808180418081813180118231817180418091812179318021813180718111811179518041805179918011807181618141805180317981797179818021808180917911797179018131810179218051808180717911794180818061800179518071805178918111798179417971801180317911799178318021787180217961800180217991790180518051799179017901798180217871791179517991797178217941795180317961803179718001791179617951797179318021790179717941793178117681782179117871778178917831780179317881785177918001793179017891796180017871792179317971792179317901798178517771782179617941789177717821783178817871793179517911789178817791782178418231781177717791781179217851789178117881783177817861795178517851780179417951786178117831776178817851777179417861792178517911789178817861783178717821786177717741782178517691788179417951790178917761791179117901787178817801780178517841791178117761794178117861786178917791788179517831790178117911788179017771785178217851782178717851784178317781783178517851782178217851783179417881793178417891781179217901787178517891781177817901786179417901784178517791786179017861798179117751796178517801780179117941780177917921778178717821793178617911785179117881786178617851790179117951778179117881793178617941781178317891792178317831789179217981784177817811791178917831793178617771788178617931783177717861788178917771781178917911792179217881782178617841782179617871784177717831782178917951791178217931778179517881781179017891783179017841790178017861793179017831784179017781777179017901791178917811780178517811782179717811794180117851793178617961781178817801791178717851784179117911788179017841787179317841794179217881787179217851794179817971797179517841792179117851779179117901790178117891791178117921797179017981795178217911800179017861779178817971794180117951790179417931784179817881789179917821799178617951785180417971800179917871801178517931796179217991794179717921802179817921796178517941787179417921792179717871779180017931782180317941793178717951787179417991789179717851785178917931793179417911796179818011801179217901787179617901795180217951796179218051799179818001803180318061792179217881802179617981793180317971792179018011800179717971804180118011799180717961791180617911805179017911809179417941793179118031790179418011800180518001804179317911794179517941797180217941796180017881803179717891795179518011803179317961801180317951800180517971797180518051800180118041799179017971798179317971804180117901807180517961801179617971803178718091798180117921808179118001806180617931803180818021797180117971808179117911800179418081800179317951803180617911801180617981789180118061801181218071801180618051806179218041807179817891800180418001798179718051805180618051795179618051810180718161798179717971805180518021790180518001807180918021805180818011814179718061811180817941796180318061804180218051802181018021796179518031798179518031798180518091800180217971804180318061800179718061790180417991802181318041805180818031803180918031790180417911805179418061802180018051804180218031803180718041799179818091804180618071809180117911800179218121799180618101802180117871796179917961809179817931801180418021807180517951804179618061803180118041800180617961803179918051801179918001803180518001803181418011801179218051804180618001796180318041799180317981802180218061797180517991803181418041799180517991810180317981795180218051804180118001806179418071803179717911802180618001797180018061802180417971807180918081805180418131801180317971807180018011805180618081806181918001809180318051803180618071809181617991803180518091798181418051814181018171803180518091800181018141812180318031810180118021811180417981798180518131813180218001816181118101807180917961812181718111808181618081809180318141805
1803180818061805180318041802181018071820180518131801181018151802180418111804180818151818181018121816180218101807179918081809180618021797181618091800180018001806181617951803180218021811180918091804180718131810181718191808180818111800180118021809180818061804179918011798180217971790180417991810180417951799179718061805180518081794180418001818180618081803180118001803179817971803179717931792180018041800178918061795180917981796179718051805180218041799179718031787178817911788180517971799179317961804178917911798179617911795179417981801179417961782179318041797179717981797178517981789179517871793180018001795178917831783178917811794179917871795178317861797179817821787178317791781178517951790178917871788178817851778176817871799178217771800179617821786179317851794177917781786178917911797178617911789179117941781178917891790179817911796178718031787179617911789178818011786179817981779180017961794180617921788178818011795179017931793178617861797178817911801179917961796179917941801179317991805179117951800179617971800179417991798179718021803179517971801180918001804178717941798180318051807179318001798179517961803180318061808179717871807179317961801180018091789180117951806179217961802180718031809179817961807179717921809180318091799179118131804179517981796179817981801179918091794180618001801179818091802180618131800180018061801180518061799180017971800181018011808180618131809180718071815180917971800180518081804181218071794181118021819180717961818181718101802180118131808180918161814180818101794180518111812180318111803181117991817181018121808180618171803179818051821180318081818181818051805181218081815180718201808181418151814180418141820180818181809181118121801181818101815181518021807181718041813181418171804180818071811180518141808180517991806179818151811182118091809180918041812180418091812181018151815180818081814180818051808181018131810180818131814181418001806181518011801181718101813180418031816181717971818180618041809180418021811181818171805180918181813180918121816181118041815180718081803181518051813181018111806180318121799180117991811180417991808180917951799181118051798179917991798180117921808181218091794180218121814180218171805180518081808180717901810180318081802180618101811180318041811180518081801180718091809179718101805180318121803179917941804180718101803180518131812179718001810179518041800181118041809179618091809179918141807181718051799180218061806179818021803180318101811180318051810181618131800180318191811181518171815180018141810180318011815180818131810180518191817180918131810181118211822180918151808180618221818182318101808181918141810181518091814180818031808180418081825182118041815181718071810182418071812180918181820181617991810181118101815181718091814181617991805180718121813180918151815181218021813180218121814180818071817180518081812180818011813181418151802181818051814179918071812181218031809180618161797180618001805180318191809180117991804181018051800180118021809181418161804180318091805180618011809179718031799179617991798179018031812180017991799181317971800181418031809180318041820180117981811180118101812180618151811179618071803180718071801181417951795180518071812180318021802180118031806180718121812180618051809180518031806180418141810180718161801180718021814180318021804180518141810181518051800181218151821179818071813179417981810181418051805179618171806180617981804180918111811181517991815181218131809180018131808180717981806181018151803180218001822180918171807180918121811181118121802181418121799181018091817181317991802181018171805181118031806179618101812180718011804180418141807180718061809179918131809181118111811180918011817181018111802181018011817180218161808181418071799179718091814180618121794180118061807179618021810180018091794181018161811179918021807180918091808180818041814180318061812181318021815180818091798180318091806180118061803181418021801181318191809180518051802181018081811181018121817181618021804181118011815180118081800181618111804180518071807180318031819181818141803180918161805180818151817181118131818180618061810181518081807180918081802
1808180818111808180918131807181618051803181218101805180518111803181618121804180818071806182618111797180718051804180618131815180618011816180818101798180518091803180218051812181118141816181618111805181718111812180718061809182618101818182018101808179818091811180518081807180518061807180917971808181018151802180718061805181318011811181418211805180918111808180318111808180718081811180317961809181618051811179818131811180818081809180018161810180418161797180718081803180318101814181118161805181218181815180318111807180618011802181118011817180518081812181117991802181218121809181418001799180418001799180518041797180418001809180218141808181318021813180618011799179917971804179818141809180918061811181318081801180718071803181118071791181118091813181618111806180018051808179917971798180118031801179418011803180918141810180118091816180218111812180918121810180117971808181618021801181518001813180618101814180218081806180918191799181718081799181218061811180918181810180818051799181118061807181718141805180318071806181118071811181218161819181118161819180718171804181218121812180918091813181118081819181618061809181218131817180918101814181918181825181618291814181218191808182118171816181918161827181618101813180818161813180818081816181418031817181418051815181518091807180318281819181818161812181718231808181518151804181618081818181718121815181718081820181418121821181618211814181418161817181018161817181818041818180618141819180618171811182318111826181718201814181418251808182118161817182718181828181918221823181918091819181518121807181618211808182518151819182618141815182118021807180718161818181518061821181818141804182118181812180818091814182218101805181017961812181818191808180318051801180918191818181518121817180918121816181318111805180418081807182018081816180918061816180518161815180618141812180318061810180918081813181318021816180318171808181418151815180918011815181118191814179918031820181318131804180518051813181618161807181018061813181618151808181318051801181518101812180618131806180918181816181418151811182018121811181418091803180618001799179618091811180418121805180918121817181018171809181218161803180918151818182118121804181918141816180818251823181918161814181818111810181418171804182018201821181618261810182118041821180418141820182118261816181318301819181618081819182918071815181818261808182618081810182018141826181218091824182318091818181518151815181318191815180818211822182218121824182618241813181318091811181918211816182218141822182018271818181218131816181118191810181918211823181518281809181218171822181818241823182018251807181618211818181818161824181718211819181218161827182118161827181618141817181418291820182718131812182218271829182718191826181518161817181618201821181618131826182618161818182918101819182918161827182318291821181518211829181518231811181118141815182018261825182218321822181918191815182518211814182418211826181918171815182418271818183518151823182618161818181818251826181218241815181518331824181618241825182618241811181918251825183118221829181018341826182018291827181918151829181718181832182518201823182618261822181318261826181918341827182218291833182818171824181518331822182518291830183518291825182118211817183318301835182418281833182318291813182218321834182218251823183318271826182418221832182918291831182718221820182118261825183618271823181418341832182818181819182118261826183318291825183218261822182718271827183118351827181818201828183418241814183318221837181918311828182118341831182018251827183518251829182118291825182818331834181718201837181218271814182818151813182018341825181518301818181518161809182818161816183518251823182418211822182618081828181818201824182118261813181518201819181918121810181418251827182818271815181118261807180918161819182118161807182918151812181418111821181718091812182018161816181618161809182418201811182718101815182418131820182318161811181018091812182118241811180918211824181618271811180318251826181918121815181118181815181418121814183118171820182118161821181418271813181318051821182118211823182218111823181618171812181418171824181018191819180818151817
1820181218101811180618011801181318201821181718161804181218161813181218111818182018141818181918141829181318271809182318241822181618171832181918271806181218011824181318231813180818181820181918171825181918111818182518181819183118111812180818091804181918101821180918111813182218151811181018081809181318181814180818161819180518171811181918141801180618111806181318081810180518131807180118111811181718041809181317981808181118101806180418091815181018021819181718091812180618031815181118001816181018111804180418071807180418101812180818041800180418251814181218021812180118011802181018171803179618001808181418031802180718041803180718021796180918031808180118011808180818121801180718021811180317921807180618081799180717971807180717981809180918001810180118171813179917981793179918041799179018051809180118031804179617921804180418021801180217971797177818051804179418061801180018041808181318011805181618011803180018101802181318211813180418101815180618151808181518151802181518181806181418191815181918121814180718121817181718071808181118111817181018111809181718021824181818221828181018151812181518221811182218181821181518241814182018211815181318151810181118201823182118131821181918071822181118121814181018131805180918061810182518141807182418261821181318081815181218201813181918151824182618221810180918201818181318181816181418241821181818121812180918181812181518091805182218151816180818071821181518221819180918221814181318171815181018091812180218241816181118111822181718221815181718121808181718151813181918081819181818181813181718041807181318051817182718151817181618191825181518261816182718151817182318211815181318171818181218191804182418161823181918121814182018081820181818261816182218131825182218061822182218221821181618111821181418111820181918191808181318251819181918271819181318241832181418231814182818131816181318101821182018281827181318121820182318231830181418171826182418301831182718141819181518111826182518201820182818211815181518121828181218271820181818161822183318141821182318131826182718141827181618251815182418121827180718141815181318181814181618181824181518121812182418151817181818231815181118291814182718191822181718121820180818211820181518251819181418241820183018291817182318241816182118271827181618171817182418291826181818271824182718241835181718321824182618151814182618231813183218291819181818261819181618301816181618361824183018201815183418331827182318231827182018211834182118251828183018231819182818281820183218301824183018271824182818291818181518321826182518201833182918211836181818261819181718231831182018211827182718171816181218211831181718221833182318151815181818161823182918251811181118171822181918191821181818221825182818241818181918161812183118171814181518221824182918211822181218281817181318131828182318181816182418181823182618291830182618111813181118261827181718121820182318151815181918181813181518211823181418261813181718101814181118221824181318201823182318181822181518141827181118141818181418221824182118131816181718241820181318251810180618261817182518061816181218161812181618121821182218181824181518231812182318151825181918091816181718211826181418101823181818131823182318171818182818261818181418191827182418191814183218271820181118121815181618231826181818131825181718171817181418171823181918251818181618121819181618091823182018221827183218241822182018141827181318211829181918181826181918231820182718211821182118131814181718231820181618151819182318171806182318171814181818111817181918171824181018281821182218131835182318211825182218271826181118201831182118221821181918191823181218131828182618191822182318241826182618101824182118251824182618181828181318221818182718241823181618231816182018241833182918191825182018231822182718241812181718311830182218171829182118151820182718341816182118161816181818251822183018281815182418311820183018251820181518231819181618281815183318161834182418251818183118171821182018281821182518251824181518301820182418231816182718121819182518261833182718261828183118321830182818231822183418141826182118351820181618181825181518261834181818191820181818291820181618171822
1832180918241821181418321815182818311823181618301808182218271814181618271809181118101823182118121817182218181830182518121816182618251818181318151818182218241814181418261819182618191815181518321818181518241820182318151813181218231810181918241818181718131810182218161819181318171813180918211813181218101813180818251825181318211813181218241803181718261808181418431820182318081813181518101813180518211820181218191819182918101824181318081817181318141821180118041818180318161816180118171812182218071811181618171808180118201820181518161807180718131801181418151799182218161806181418081805180117991820180018061809181317981805180918021803180918141802180518051802181118101813181918001811180918081808180318081813180118021803180718011811180618171803181118121810180418181805180018101804179818011807180817981809182218071810180018111809180118241804179818161809181418041807181118111816180518101803181418161819181318201811180918211821180518061812181418091811181118061821181118121800181318141814180918061810181918171809181018151812182118201815181718031811181418081814181718141812180618071819181318101816181518121817181518101811180918171822181718181813180018131809181918131813180518201814181418121809180518171818181318061814181418141811181918171813181818211821181018161823181718231811181518151829180618171818180918221817182718121819181018141810181718181809181618071821180418141814181118161819180818231812181818201819181318281822181318141811181018181817182418211816182518161816182518171809181018191819181818171812181918101814181918181811181718131820182618181823180718091825182118151822181318151823181018141811182218211816180918211824181318291816182518291820181718171829182118261819182018281824181418241822181918241817181718171829181718231814181618211829182718181828182618331827183218271822181918241822181618161818183618201821182518131830182018351829183218291828183318271833182618311834183318211841183118261832181518431831182618231831182118281832182918191824181818391838183218351828182218331829182818231833183118351835183018201824181918251831182118241834184518331833182318211835182718221822183818321834181918351829182518361831183318271818183118371837182118321831182418411829182818341827183218341832183518311825183018351834182818391826184218211837182518341833182618291823182218401833183018311838182318321824182318351831183218341821182918341844183018241820183618371832182318341825184318361835183918371836183118331830182118411836182918271840183618311838182718391834183818321833183218331828182718291844183618321820183118291826183018241831182518351828183418251828184118331832183518331833182318361835182218311831183918311826183318361824183418371840183218331836183318291821182918261822182818411824183618331834182818211832183618291828183618341835184018331823182318381833182518281828183418271831183418391839182118281830182518401839183418351830183518301833182818261837182618231839182218201823184318231827183218251828182718251830183518251832183418381837184318301839183718251836183718301827182818241830183718421840182418341834183918371829182018291827183218421838183018391828183718351840183018421827184218351840183618331819183218311829183318261836184018361827183618331829183518281835182818401838182918341835183918421833183418281839182518391832183718311828183418411841183518311829182218251837182618361846183418341837183918411837184318411842183218421839184318281832182718391825183518311834182818341845183418351827182618371830183818421833182718331839182218321837182618221835182418361844182818301838183218281833183518381830183818321837182818221831182418351839182318471837182618301827182618331820183018191835182918311835183418311838183218341836183918351826183018271825183718301840183518261829182618351835182118341840182418211839182518271831182718321827184118331835183418251835183018241824182518331829183018371825181918261832182818231836182818311837181218371833183618261835182918421830183318361831182918231836182818331828183018291838183218311825184018311833183418331840182818271829182418411838183618251831182718241834182918241836183418261824
1822183418241830183118341834183718311837183618391828182618331836182718271836183818361837183118391832182618311826183018401836182918321840183518201824183818361837184018261826182418391835183118371834183218251828182518361834182818301823183118241832181418291831182218221826182018221816183918281834182418261840181918331823183218241821182918301819182918341820182318191829183118241823182518181827182118231823182318171821182718161824183818191825182818261826182218081830181618201824182818201821181618211819182218211811182018191815181918171822181318131817182418311831183918151827182418271818181318241809181918151824181318271816182018161810181318221821181918251826180618171806181618231821181617961808181718261823181218061806181318161805182318261815182318101817180918241819181918131817181018091810181018031812182218261817181818111819181618101807181418081823181118161815180918091818181618201816182818221809181418161814182118221820182418221816181918181807181518121819182118161816181318071813179918141822182218081821180518121806182418121821181818141824182018151820180918191820181218151823181718161818181118181811180518091826180618161813181018131810180218211813181218171816182118151810182318211808181618051804179918181821181418041813181818131809180718071811181118141817181518231810181618211810181318111817181818181803181218181811181318111825181618221823180918191826181918121808181818221811181918161817182318181826181718261811181218141827181518151827182118161831182418261825182418161815181618221824182618111828182118311826182518261819183118181829181818231833182818251835182518211814182118181827183118161815182918141835181618281817182718271814181618341833182918211832183218141821183518171831181918301824182918331820182018241816183418311827182418351832182218341825182318241825182518211821182318201824183918321837183618251838181218341828181718241814183318331829182918281819182918261830182518221833182518261822183818351835182618291834182418291828182118191828182918281823183118291825182818261829182918251834183918171823182218271842182018301827183018221819181518251823182518361832182518181819182618411835182718381817182118231836182218261832182718231832183318241827182018251822183218281837183618261834182718351838184118291841183018341825183518231830184118371836183618311841182918391834182918241828183018291824183618361828184018261824183118301847183818371837183518391832183418311832182918341829182818271843183618291826183118261845183618221838183318401829182518211825183518351840182618201831184118231826183118291835183718271831182918321840183418321827182918301843183918221828184218351821183718401832182418381837183018371824183318371827183518351842183518441842183318431829183718261849184218431835182718331844182518361836183018381825183818341835184418301828183718391824183718421832182618361843182918381825184018231829183318321838183618331836182918391834183618271835183118361831183018381835183518301840182618311831183118331838182818421839183718371826183918371843184218351833182618291842182418451831182818271833183818411830183618321835184118341832183818351840182918411837183418361831183218291824183218381844183418391841183118431831182718341839183618361832183518391831183818321833183718381837183618271831184918261821183418391836184218311828183318231837183818381833182518251829182218201837182818391834182818351828182918371832183218331838182518211828182618271833183318301826182818291829182118271819182918261827183418331826182918211829182718271833183618291826183718211842182018371821182718291830182818281835183518151823183618261827182918301829181818291833182818321835181518241826182618271828182418241831182318241818181918171833183618321833182418231826184018181829181218291835182618241832182518321839183118221827183018341834182418141830183018301817182918251832182218281819183218291831183218211824182718211825183118321826184018201821183218301827183118331829182318171833182918211825182418281824182818301821182518251832181718271817182118261827182618151839182518241828183518251819182018351827183318331826183718291836182918241832182418311821
1819182818301817182018261831182818151816182518191822182018271825182418221822181418341831182018241821181318301829182218251823181718261824181618231813182018241814183018241818182418371829182818301833182018241827182918301827182718241823182418201820181818221829180818121809181918231826181618361813182218241824180818171811182618241828182218181803182318101820182518151830182318201807181618111819181318241831182218321817180818131812182318121821181618231825181818041812182318061826181418241812181218151814181718201826180918211811181018181828181018201814181418111812182018161806181918281809181918091814181118101813182218131806181718281808181918141814182118151816182318151823181118201821181118111824181418161823181118181821181318201813181818131821181918151822182718091812182518221817180618091821180618201805182518071802181918111823181318181809181718221820182418161809181218271816181418171832181718281829181618251828182718301827182918291831182718271825181918171815182218261827182118161826182118251817181618301820183718321830183018231828182018171819181718261811183418231828183318321827181918291834183118331822182018311826183118211828182318201823182518341821182318301837183918291830182218291826181618411833182318231837182018271825182218351832182718221827182618241833182618301824181818361832183118251830182618211831181818301833183318391823181918241813182118211833182618251830183418351833183118321823182118261831183218201833182418271833182418301834182418321829182718231820183818301835181918231824183118281825183218241831183518241824182118191818181818311826182618211828181718241831182118251826183118231834182618351829183318261831182818301823183418281836183818181835182018331826182618351825183718261828183518271816182718201827183118171836182518211821182118321829182918361826183318251821182618301822182918181836182818281817183218311821182618251827183018301825181918191817183318271819182118181820181918241835182918191818183018221832182018271833183018321823182018291831183518341819182818221832182318231834182818391832183718281832182218291835182718091817182418251821182018361829182818251823183118341829182518271828182218251838183918311836182018351836182718341819183718341837183118331827183118261841183518271825182218321836183018281827181718331825183318281821183318271829183018301830182918301821182218271836182918291839182218241836182618361818183518271823182518311825182818231823182618341831183318231830182918291824182718241828183518331826183318241828183018201822182518241824182618261823182718171831183918241824182518351831183318231834182718311821182818231825183118381829182518251821182818291825182918311835181918381832182718351830181918341826183718261833182418391827183818231831182818331821183618231838181918311825183318271826183218261826183418291825182418321829182518341837183218301823183118371834183918301822183318261832184018291820183318151819183418381838183718391833183718361825182818251828182118351837183318201820183218291822182518391835181718391837182218291815182718281821183118261832182218341839183618241834183818381832183118411826183118351824182718321828183618251818183118291824183618321830182918391826182418241831183518211824182818331835182218441832183118321826182718251831183718391835183818341830183118251833183518311826182718201835182818321831182918341829182518301830183018311831182818221832182918191827182518351838182518321829182618331840183718361833182218341833183018361824183218271824183718201831182618331822181718291819182718271821183618321827182718261825182118281831183118251817183718241837183118311831183318371822183718421833182818311829183118351829184018301839183518261827184618321820183218371836183818311836183318401839182818311833182718331829184318371838183918291837184718321841183318301841183018351838184418421840183918401837183218451829183918451833182818281836183918451840183018251834183018351834183418391843183218341832183818401830183918461834184418381830184918311838184218491837184018411829184618581841183618371835183818381836183418491834184418461840184418491850183918391845183918481848184718331842
1837183718501841184918401832184618501829183018391840183718451830183618431844184418491848184618341840183218361852183818531841184518461851185918461840184218411849184018391845184618411848183918391848184018431846184118511842183818441849185118431835183618481839183318451835185218421850183918481845183018471838185018391855183618391843183718441841183318491841184518451836183718331837183818281797183518331835185018481844183318321830183718481843184018421842184318271843183418421849184118341844182818381837182918271842183518411845184418341828183218281840181618371834183218351825182418371842184918301836184318391828184118261839183418301820184018351830184218291833183518361844183418341833183118261826182718371823183918221827183918261835182318291832182618341838182718321829183318231830182518241839183118231833182418241820182518251822182118281832183618221830182418261826183318331830182618251829183718401832183118211833183918331827182918381837184018321833183418311835183118351841182918371835183518311821183118411839184118361836183918291837182718271830183918191836183518281840183318201831182918431832183718271830184218361833183618341838183218281828182818341823183118321845183718341831182618311835182318251832182418291831183518411830184018331836182718371828183218341845183418331839182118311831183118301844183718431839183818381830182718421838183718301846184418411836183718341837184118371835184018341826183418241842182618241823183318331837183718401829182818371835183218391832182118291833183518321835182818411824183118331827182018211834182418271829182718311834183018271835184118311825182918231829183718381829183018411835182418361837182518281831182618311839184118251826183818281833183618381836183418371834183918351825183718431824183018281845182718391834182918361832183218311829183918211834183518341836183618391832184618271831183918271832183118361839183718451840183618311843184818361835183018281834183518331837183618411850183718411837184518471846184918481843185118441834184718431845184318431848183518441847184818491834183718351837184418521851183418401846183918391830182918441838184518291838183618331844184118351833184718441844184218441834184118441846185118451841184318551844183318461843185418401830184718351837184818491842184618441853184518541853185318421849184718451854184418411847183818411839185018501855184218491840184918401840184818521849185018421838184318331843184118501840185218371848184018441832184618391854184218301850183318431842183518421842184118441838183818321844184318431834184218471842184818411840184918381834184818431833183718361837183918431837182818421832184618371846183918351835184018311835183718391834183718401839184118341843183318321837183218411827184218411837183718351840183718281833183718291839183818261830182618411841183618311841183118421832183718351838183718271841182918241833183818351831181918301829182618261824182918261829183918211828183018271831182618271835182118261836182918341833183618331825182218371828183618321819183118271822181918281826183018221827183118241836182918181827183418311834182618281827183318291833181918301825182918351821183518211828184018211829182418221836183118271823183218291819183018381831182918271832183718291840182118251829181518271830182518241823183118241828183018241827183218311822183818341829183018321835182518351817182318261825182018191821183018291824182218251837182318371832182818231836182618261825183218311826182618301844182818281824182418291831183318391829183118271826182518301833183118361833183218321841182118361828182618301837183318241827182818261836183418241825182618321839183118341827183118241841181818221827183018351831182718341826182218271821183118261822183318261819183118301828182318201833183118321833183318331835182618281842183618261832181918221827182518341820182718291826183718311826182818241828183818391832182118391823182418341828183118291818183818281828181818361836183818381830183618311829183518321826183718331828182818311833183718341839182618311826182818341832182818301841183718261825184518281840182818381832183018271838182918361829184518401832182818221841
1840183118361824181818381830183318351830183318281834184518361836183418391832184018411836183218411841183118321839183218291833182818301838184018441830184518351836183718281829183718391840183218401829183118241837183318381833182718301836182618341830182418331831183818291830183418261830183018241827183718311832181818411823183418351822182718431823182018351832182718281833183518161831183318331813182218331830182418181822183118201823182818321830182818231833181718101832183218331822183118281830182318271817182318201826182918221826181718301833182118221824183018181828182718291827183418161833182818291811181118211825182418351816182518221811182318121823183418281820183118301815181118221825183018291828181818151828181818221821182318141812181518241833183018181829181818321814183018151809182718151821181418071828183018181806183118161830181018291818181718301826182218141826180718151818181118131826180718151817181218171813180918081814181918161819182118111824182718291819180118191811180818141821182318211811181518201810181718201812181418221814181018121818182518121822182218181810181918121811181418131825182518161817181618241817182318241811181718251806181018171819181118211822181218171809182618171810182618131812181818251816181918201817181818251819181818171826182018181816183018291825182418171816182118241820182418311819182818131830181818101813181718211812181218201814181518191816181718191823182118271816181118131810180818281822182318261833181718221826181318221825182418131831181918161816181218191814182018251815181718191821183018171825181718171831182718201824182418121817182618231809181418151825181818271819182918201825182018211828182618151822181218191820182418111822182718261838181518311834182818121825182818311824182618361837182818221830182818171823183418211822182718261833183418301824183618241822183218291833183518251829183318241831183618341836182318221827183118301818182918211836183018301831182518301829183718341831184118291819182018331833183118341823183318351832182718341833183218331831183518321838182918341835182518261827181618331829183718221829182518261821182618381833184018301819183718291824182318221833183218181836182918251827183318341825182818271830182118341840182918271830182718281829183418451835182818421828183318451824183518401827183418271812183418361836184118291828183818321831183618311839184118241835182818291841182518371826182518391826183118271833183818231831183318311821182518351835183418381821182318271828183318401818183618381832182618291827183018331816184218351838182218381831183118411819183318201825181818381819181718371832182818281821182818411831182918281823183118251832182118291827182918421832183418311827182818231823183518221823182918301830182318281827182418251825183118351817181218201831182818321828183118361831182318261826183018301840184118291824182718321828182518301832183918231828182918311843183218321830183418401839183018411839183418331823182818281827182618351830183718301834182618301824182918241840182618351836182518341826181918231827182118401837183118321831182618391829182618321831182318341825183318301838183618401824183418361829182618331822182718381823183418371839183518351832183118381830183418211829183018301826183418281831182118251825183118361830183118241834182418281833182218181830182918281827182718241826182318301829182118291826182818321825183418211831182918171823183018261817181218251827181518271826182418171816181418211814181618181827181718151825182218311811181018191828182618251823181218241813182218181817182218221831182518251829181018141817181018201816181818201814182318281831181418181807181018131822182118251823182518161814181118131811182818171809181818111820180818301827182418231818181618151818181918141812181818211813180818081825182218151813182318071818182718261814180918081818182518111816181918141812182518241808182318171805181018081811182418171828182118141820180718081807181318031819181818131824181118201825182318111814181817991824182218111814181518041823181018141822181718171803181118141811181918091823181518121811182118241813182318241818181618151818181518071807181718021806
1814179518131804180818121823181818191819182118101820181018141803181618171805180918161811182418101817182218081831182018121810181418181811182118151817181418241813181918261802181918181810182818121810180918191817181718101825181718091822182218221820182518131812182418161812181418161820181118091810182718271812181018111807182318201818181218241809180918141815181218191817181618191806181818191823182718171819182718091824181418151822181018211820180318201824181218171812182818191825181318151816182718241829182718201828182418241814183018121819182918321825181118221819183818351824182518251820182218261829182218181828181718241841183418231835183318221816183218361827181618271832183718241814181318201834182518291819184418241828182318351827182818241820183218341836183818151826181818221835182818291834183118231826182718271825183518161829183818271834182918321821182418291832184018371824182618251822183918281826182018341829182818231841183218351834183818231838183918331833183118461838184218491839184118401834183618421833183518351835184218371844183018401833184518341825183718351839183518311841182618411831184018371830183318421839183518351832183718321837183118341839184418331844184018381839183618301831183818441838184118501843183118451842183718401839184018391833184018441837184518421831184218451837184818331837184018501852184418451841184018481851184718441833185218491849184718441840184518421839184218441852184518361849183918381848185018551842185218301853185118521854184818491851184718451851183718351833184518431846184218381851183918371849185718611844184918531849184218421852184218411838183518371841184418391838184718491848184218471844184018431845184618401847185318391840184518481843183918491844183418511846183518391835184918431845184218261843184718311842184518351841183418481846183318401838183218441841183418451838184518441836183718311842184218341843183918381831184218391838184218391843183818411840183218431846184018361841183618331830183118381834183218381832183918291843182218261841183618361832183418281838183418411833184018381840183518371836183618221828182918261843182518361828184118241833183818341833183818311820183018271836183018261826184018461832182918281838184618411832184518431840183118381843184518221829182918491840184618371843182918371837183818371832183818331834184318431837184018481841184418301843184818331844185018441833183018351840184318381834183418331835184118351847184318291832184818381846183418401836183918381841183918401846184218421852185018421832184618291830184618421841184218421838183518351837184718461835185518401837185418421838183518391837184818331847184418301833184718381847183718451837184718501848184018501845184118351835184118351841184318381834184718411839183318451835183718441839184018441833184918461840184118421852182818491841183618311849183818301829184618391837183918421841184418441833184618561835184418311835184018431847183018421835185118401839183818341834183318361827183918461835183218481837183718451833183618361837183218461845184218481837184818391841184318381845184218281845183418291841184018401841183818371835184018371829184418351837183918371833182918361824183418251834182918381837184318251830183018291831183318281836184018361832183318441833183318311831183118411835183718351831183818331825183718331825182718361827182518371829182418331835183118331837183918401834183418271835181918271823183418351827183018271827183218361833182618241835183318291834182418271821183418291836183218271827184118331828182818221827183818271836182518241835182818211825183218391830182818281822183018331829182118271831182518311828182918221821183218411833183618321817183418361825183118251833183218241828183018351829182218401835182918331831183118271839183918231839183618331828183518301827183718261837184318331822182818381825183118301831183618321831183518381824182818281831183218241837182318371835182918381827183218271824183018371824183218361837182718341836183218291839183418281825182718301829183518241839184018311831182418301827181918221833183118351833182418161828182218301828182018291835181918241823183718221837181718281821
1819181918221824183118191826182718141825182018231822181918111805182418301816182118081827181318081829182218051819182418211819181618171819182318101822182618281814181518181832182318211815181618081819182218191822183518171825181218231819181018241822181118241815181118121808181318231811181118181816181418081814181018141813181018141820180618171803180718071822180918191816181118091811181618061819182218121818180518111821181018171820180918081819181518121817181118011802181318161818180218131813180618151803181218111805180518001816180718041814180218071801180818161811180318161818179718031807180518001817180118001817181018091810181018091803179517831798179317971803180818021804180317931792180018081810180318021805180818111816180918041815181918171800180918121808181418031806181618031803180118071810180117921806180418061802180618051804179918091804179918071806180418181813180018091800181518121813181518141801180618161802181218041822182018191815181718151812182018171812181718041816181118181809180818161812180318081813181118101817181318091822181318171825181218221813182518151817180718081824180718261817181518111807182018071821182118191823181718121820181618181816181918211828181418211810181918121812181818091816181818231817181518291828181618231823181318201817181318141818181318181829182118231811180718191819181518221811181118191819180418041816182418071819182118061813180318221819180718211806180718211815181418071822181718111814180818111818181518151809181218111801181718041812181318031810182218101823181618131809181018101815180818151811182018101805181418121813181618031809181418111813180618081811181718121816180518071805182218101817181918181818181518111819181318131815180818201816181418091821180918221812181118041816180418121820181118061807181418131809181018151812181918051819181518121811180518081812182218181819182418181815181418101807180718241814181618141815182118231817181518281820181518121813182118051820181818231817182118271818182818191814181518261819181918271829181118181820181518251824182018251826181718291817181918221815181918261823181318191812181918171820182418191821181718161813181718241813181618151825181918211826181718221823183518211827181418291821181718201821183318181821181618311827181618331816181318161819182418131816181218311838181918291827182018281839182118091811182818141824183418281818182118221813183018231836181318111805182818221813182318191815182218151830181918191826182618251825183018281824182518251818181618201815181218191812182518251825182618291830181718121818181718291819182218131809182518261813182218261821182118291819182418231822181318081825182918241822182518291828181918171830182318301817182118221823181718151822182818181821181918271818181918231823181518191821182618211816182018201820181618201819181718071813182118131814181918211811182218201815181618221817181018171826182318281812181818261813181218141819181718201829182218261829181718251819181618101816181518181824181918121822182618141821181818211830182218221827182318171817182818151819182018251821182018261824182118371829183118161831182018211823181618171824182818281825181718211827182418281827182418221824181818251834181918231824183118241824182718181827182518201821182518201820181818161822183418361832182418341832182918151821181618361822182418361835181918291821181318171816181818341822182418141827182618311826182418241825183118311833183018331821182418311815182118271822182218171822182518251819182618351819183818231829183718381824182218321830183218291836181618251839183218311831182418291817182318191825182118221824181618191832182918271822182918301817183518211823183018211839182118271837182918131821182418291817182618141823181718211826183018281817182218321832182818301830181818301823181618251815182918301826181918211817182818301815182518211814182018191823182318191824181818251826182518221830182018211829181918291823183318211826181518191816182218171819183318221824181718371832182718221818182818211819181918281828183318191826183518291824182418241827182918331814182018131828182018291831182818211822183718371829182318191837182418261822182118191822
1817181418151818183218161838182218231831183518281826183218271829183018241833183518251830183218201832183118241830182718381828182518281824183418321834183218301829183918301831182818241824183118291831184318341833184018351830182918281835183018281838183618341833181918251834183418271832183818291829183218301820182018341825182918381828182618351823182718241820182718261833183718171833183518241827182318341841183518371829183718271830182618271821182218391823182718341830182318331821182318281828182518341834182018331830182218181834182018261820182018271824181618181831183418261818182518251823181718311819181918251816181518221823183618291818181418141817182618181820182918291835182418321820182818291840182218261814183118161829181018301823181918271827181618241831181918311823182218291837182818351822182018331823182518281812182418331828181618211824181518231821183018321822181918401824182218401828183218331821183118361821183718231826182418361829182718211833183118401820182518331833181718241824182518381818183018291831181718191827182318321829182918301831183818361829182518131831182318301821181918251835184218221825183918291832182918291825183618261835183818351825182318281826182118261833183218351821182218201833183118301824183018261818183318331823183318221832182718331822183018321834182118251821182118211822183218241827183118161821182918341835182918261828182418321821182018361823181818261829182518281828183218201833181718241833181918241818183818251825182618251826181518211817182318261820182818171830182718281822181918191817182118101815183218211817181618161819181918251827182318281819182318211826182618111824181018271823182518211829182818251821182018191812181718271815180918181822181618161808181918301826182518111818182418111812180918171810182518111820181218271819181218151821181818181827181018171822180818281812182118161820182118161806180718171809182018141808181918131819182218081811181318161826181718071820182218131825181118041813180818101808181118141809180818051809181718171805181618061812181018141809181918011813181018141810181318201819181318211816182218141815181318111818180518041817181118171812181718101828181718131804181218221817182718191828181218221827181918181813181718091814182318141812181618211817181218171811182118251819181418131818181818251821182118211819181818181830181518251808181818251807181618141823181318191812183018071822181018201815182518251825182418161822181518151825182618081827182018171816181518191813181718171820181318231806181418201818181118161821181818241816180718211816181818231803181018161818180718111817181818101811181018051809180718191815180718041810181218241826180318141816181618171807181218131804181718101814180818141810181818191822182518151815181418091820181318121813181018051818181018031819181318211810181318141821181218211818181418101812181718091814181318221821181118141814181918021812180518161806181318221807181418081817180618121805181218151812182118141810181318141819181618081815181918141821182318091823181918091814181218261798181218211817182218201808181818211813181218181808182118121819180618151814182018141814182518081808181918141803181218131821181318121815181818061825181718051803181118211828180718131814182518121813181118201817182118161821181618231819181418261819180818121827181318171813181018181827182518181813182018091823182418201822181218271814181218211815181018111816182818241817182518141814182518241821182518221816182718091818181918251827182418241828182418211820182718241824182018301818182118151830183218151824182618221826182018251822181718241830182618351829181518231824181718211822182518191824183218311831182318211818182618211819182918381816182718211827183218231831181918401819181918311826183118251824183518381826182418351827182618311834183718151826182618311824182618231827183118371838183418391838182418361819183218271824182418291833182418371833182418291831182218211832182418281834182918321829182918291838182918411819184418411824183118351837184318351833183218391842183018321837183918261826183618291831182918351838184118331828183318271840183818231827183218291837182918251836
1838182418241833182418331826183218331835182618311834182718341813183618261830183418351825182818311823182218241833183518301827183718341821183418181833182118331815183618311830183118251813183518341822184518321828183618251823182518281829182718311836182418261827182818291829182718291821183718251832181618251830182418371828183018351824183318201810181618271820182618211819182118201817182218211817181918291830182318271830181818171827182618161816182718281822182118301827182818321809182818391808182018191825182818191828182218251829181718161828180818251820183518301815184418251826182918281826182618211835181218191821182218301826183218181812181518291825183118251815183018291831183118311820181918181820183718301835182918361826182318221836181518371822182618371832183418261821183218311828182418291829183518241818184018251836184218381823183718341835183818391833183618331831183118401824183718341842184518441842184418471842182918291844182418351835183018431836184018261834184318431825184118271830184418261826183718411840183118381825183918251843183318311840183218401836183118421835182418401825184118421829183918311845183318251829183618441838182718291839183918401841184418321823184018251836183818421831183518401844184618281841183018391838183218371829182718271840182918321838184218311831183618341828184018351836183518261825184118431837183018371828182418311841182518341850183318311825183118281835184218311840183918321833184318281827183518371835183418321830184318291844183818301840184518321832183518321831183618441837183118441843184018291831182618301831183918401836182918381841182518461847182818371832183418451847183918371838183918411830183918341843183718391829183318381843184418281827183318381829183018401839184118331837184018391834182818241835183718381836182318371832184218361827182118331830184218371829183718351823182618451825183218351821182918281821183418461826183018361846182918211839183218401834183318471827183718411843183818261829185018331842182818311830184918301831184318381835183518451830183218361829183518341829182718421831182718331829183218291828182718311839183118321830183218281837182418321834183318361840182818371828183418291833182418411835183418201829183918331834182418351833181918271824182718411835183918301829183718311821184018241838182118441830183318211834183718241840183418301834182518271822182618411843184018311839183118321834183118261829182718321832183518251828183118351836182518241820184018331823182618391826183518261840182618311824181918181835182818261825183118321829182618371824182518241834182518331829183318321831183118311830182818241827183218281831182818171824183318241830183318261820183018261823183418201822183118151827182918291827182418271824181518261824182818331818182018151830182418361821182118311832182218341835183618421827182018261817183618241837181918281824181218221827182818241816182318361829183118331833182818221819183218231829181618351821182218331828183818311823183118331838181818291827182918411825183318371833183018291835182418261822183418371822182618271815183918371819182018321835183518281836183018291830182518371835183418181823181818311836183318331828183118221830182518191825182318161830182918281831183318281831182718371829182718331831183018221819183218211828183518281836182418371830183518201834183618261830182118351830183118251847182618331824182918251829182818151834183518251825182318331832182618341829183518221828183118371822182018201833182818381828182518261832183118331832182618241836181918261825183318361821183318171826182318351823184118261829182718321836182718371828182018281834183318261834183518231833183218211838182818271833183318201830182218341831183618221828183318291835182418241827182818241815182818221844182618311826183718281834183918371833182118181820184018341826182318221837182518261831183718311823182618291831182418321823181718231839182618341822183818341826183118351835184018301827182518211817182618351823183218431840183218241818184218361830182118291832182318221818182918291824181618251829182318211835183118301827182118281834183818351828182218271825183218301831182418241828
1824182518171828182718201809182418261813182218131828181018161828182918171822182418141829182218221818182318291821183118191808181918191814182318211835181918191823182018131820181518291818181018221812181618251813182618291822182018261819181518241814181918211807181618221814181218121813181918121814180318171822180518151813181018161803181218221811181318141809182218101812181717981815181018161811180918251819180818111809181718111821180918081817181418281818181918241819181418181825180618181808182618201811181118221824181218201801181918201806182018081806181518141821183318141808181918341806181718171815182618201831181618121829181918151813181618241816181518261817180818161814181818091826182718291821182218171810182518181831181718261823181718151822182618251818181718321830182318181814181618101814181718251816183418121822182018211814182318171824182818321814182618221826182218171836181818241819182318291817182118221821181718171833182018171828182618311832183418311816182318251829183118251823182218321817182118211821182618311828182218151817182818321829183118231821182318281829182718281825182918181814182518211822182618291816181818261815181618311826182718151827182518271831182518251827183118211824181918251820182618261829183118251826182918261817181318261829181318181833182118171819182818151824183118221824182818311832182118241822182418191828181918181812181818181822182618321829182018281816182018221819181918291823181918291816182518141825182618211822183318221821182118251819181318251829181718161819181518331835182618261827182418311820181618321829182918401827182218281828181418421822183818311825183318291827182418181840182118201832181818131825182718121815182418221830182818301826182118271817182718211825182118291831182718251834183218271819182318321813183118241825182118241820182518221836183018221824183218171824182618231828182318301831182518181818183418101812182518311819181718221825182618271829182618301826182118241819182918171818182018331827181818241823182118201815183018231828182018231827181618151819182118291832182418261831183318221817183018121820181918271834181918261828182118221819182718121817181818221813182518241813181918211829182718191820183018211813181618181829182318171826181718221809182518211808181818151809182318201827181318171819182418131819182718141818182718281834182018221817182318281814180718071830182118171826181318261837182018141834181918271820181718261827181118351826182618171825183118121818182418271821182218301827182518181821181318201825182618221820181718291818182318201827182118251815181718221835182118221821183318291825182118281826182018241842182818161832182518241833182318211832183318241822182818231819182618321830183718241829182818271834182418231824183118391830183518211826182918311834183218331824182418291824183518251824182718181817183718261825182018271824182818301832183718311830183618261818183618351834182818191829181818271831182418211832183318271819182318261830183318281814182418281828182918281829182918311837182918301822182918271835183218371833183718351821182818291824182718321818183218351818182518351835182318361829183818361818182118281832181918251826183618311830183218261831183318321827183318261827183518191837182518241839181918191831182318281823183518321839182618241820181918291817181718171828183218251831181918271835182718371820182918221824182318211830183418371828183018221817182118281826182818321829182118181826182418191831182218281828183018221818183218301827183018211827181518241824181518341823182118301821182918251832181818201816181118341831182418291828183518301827181718311829182318271826182818271829182918151824181818221833181818241823182318351827182718261837183218221834182618241829183918211828181518301812182318251822183018251826183718271826182518211821183018301836182618211822182818271831181718291829182218311833183118311828183218211827183118211831183918371822183418351826183518271835182718221821183518311842182618241830182718261834182818261835183518291838182218261827182318321832183218301832183318351831182618291835183518171841182618261832183118411831183218241832183118271830
1834182018311828182618261819181918391829182918171833182618271824181718321831182018271834182418201832183218151834182318261827182518301826181518251836183318181829183918341821183218371826183418381828182718311832184118391828183618301833184018161831182118221835183218231828183118381824182018191822182618341829181718221824182418261831182818241820181818191827182318301814183318141819182118331833182118251827183218261822181718231822183118211834183218291823181118211824182718331823182318301833182518361825181718281830182018291830182318211825183418371822182018211827181718281834181918181828182618171824182518251830183118161823181918211808181318231823181618201820181518211819182118091830183118151821182518251821181818271833182018301818181818251829183018191825182518281830182618321826182818211809182518151830182218171829182518291821183118121821182818171815182918301814181818271826181118291809181918181829182318341813182918261817181718181832181818321815182718321824181918241818182218191822182518171826181518131825182918211819182318361817182518261831182118261829183418251827182518171819182518151834181318241816182918291839182018341822181518391821182818251828182518291824182718161827181818171823182118281816183518371830182718271819182918151822182818231831182718271825183018241835182518341825182918191827182218241819182518321824181718201824181418221822181618261815183518281833182718191824181718171823182218251821181218221833182618141817181818181819181418231814182418251831181918321821181818151826183018211823183118171819181918141829183018221833181118221813181718141812182118281826181718331809182318131829183518151820181118081813182118231816182118181828183018261815181918171812181118181817181218111817182018181827182118171823181318261825182218291822182118181814181918131818182718041812181218241814182018131814182218171816182118141818183218101823182518051809181818211813182918121818181618111823181518301820182718221817182418261820181218201818182318181818182618211824182518251825181418161827181718211811181918251824181918271821181018251817182518201821181618151822181218301814182818241825181118191823181618191827180618121827182318231825182818191820182218181821182618241825182718221816182418141813181318141811182118241821181818221822182818171824182818351823181618251820181818321815182618201820182418171814183218261818182218151811182818161828181118161833183018121826181718071828181718101816182018311810182318281821181118171825182418171818181518311821182218251817182818311828182918211806182118311816181218111822182418161825182218161820182018101819182918081815182118151831181318211812182518321821181618171819181118301807182818171814182918091818181418231823180418131828182718261814181618201813182018061818182518171823181218111817182318161808180918301818181818211822181618071816182518051820182218191811181518071806181518131822180718211814180217991826181418091819180618131813180218111812182118211814180618161805180618171808181118201812181318201821180818211804180618121807181018071817181818071816180718131816181018201809181018121815181618171820182118101820181018261812180318221813181618081824181818271807180518131812182118241822180718241813180518211818181118141810181518161811180718011807181318131807180518041815181718101819181018151804182018151808180018081816180918081811180018121807180618051818180818161812181718191805181018091823180918171824181218071815180818101802181518161818181318001815181518071801180718021814181118141812181218041804181418101811180818131812181718051818180118171806181818101804180917971807180318101815180618071808181017981808179618011801180418111809180918151813180318201808180818221801180618111812181918101805181618061803180718051803181418091808181118191807180918071801181018161813181218151810182218001803180118171807180318211813181318151808181518091817181318141804181018081806180518051796180618071808180218061809182118051798180318071804179118131806179718081805180017971805180517971800180718071807181118151800180818021810180517981813181418121808181318151812180818151803181218111810180218101816181618101807
1808180018021804179818121804179917991800179818111808180018021796180018091805179318051813180417991802180218081812180317971810180818091808181118001813180617981795180918171808179918131806180518061809180518151803181218121813180818171804181418261808180218041803181018051803180618041802181918021800180518141808180418051815181618031819181918221807180818041804180618001808180318081813181218141807180218161802180818191806180818071812180818141799180818161811180218101820182218121807179618051801181418131811181318091802181618111821179918101810181218251802179617991803179918111812179818151807180018081787179618151815181118091805181318001792180518111802181217991811180218031806181318151795180518031801181018051807180917981805181718071802179918131811180218071820181118051805181118141800179918021815180718061807181018061805181018111801180118161800180518201817180118081803181118201812180618221807180718131808181818141808180918041816180518131816180918051819180218041813180718161817181018091814182118131805181918101802181018081806181318191805180818061828181418191810180618051800181118091808180318161800180818201811181918111812181218241816180018101815180218101823182118081809182618081818180918231819181418251829181618081805182118061812181818111812181618051816180818011799180618151808180418111818181918211808180518141805181718181803181218141800181718201814180618041816181118171822180917981812181118151812181118161820181118121813182118091829180818141821182518081822181918191825181418181817181718131821181618111815182118201824182718171821181118131817181318151812181818271819181518101819181518111815181418211817182818071817181818251820181118131830180918081825181018091829181818131828181818161810182318181824181618161827182518251822182718261829182118261825182718251817181418151820182518281824182418331834182418251829182318331814182118321832182818261827181818271827182518281837182118251829182118301834182218211838183018381827183618251822181618211826183718331837183318251829182518201831183518251824182618231831183818111829183218241821182118281835182918201818182418211820182518201825182318321829183118221835182518311822182718301820182218181828182518371829183618341832182418301818182018281821183518241823182718331839182618231824183618371842182318361821182918201829182018381833184418361830182718331824182818311825182418181836181918251833182818251831183118331816182118311828182418241830182118241838182318191821182418281824183218241830183318251829182918281829182818261827182318291817182918241829181718211827182018271824182718351826182118291811182318231817182718231825182718261812182018251816182218231828181418211829183118391827181418301824181718241825181618201830183018271814182918181821182518301832182418181827181618221813181818341819183118321825182618311822181818251824181818211831183218181825182318221822182318271820182118331817181818181826182418171822182018231829181918241823181118251813182318301827182718171815182818211810181918221821182718211826182918261827181618171812182218211819181218171821181918191823182918121826181918091827182518191836182918241826182418301825181118271817183018311825182518301821182518271828181618171818181718211831181818251828181818291828182718201823182018251819182318211814182618261825181718231835183218341829183118211829181518281830182718231835183918341815182818381823182818351828182618351817183718261831182118331830183518241839183018411822183718181831184018371841182118321822182818281834183818301831183218261838182318241830183318331837182518401830182618321830183618381839183918411827182718271828182818381841183218431827182018301836183118301820183718261822182518271831182518271824182918191829183418431831183318291832183218191818183218341823183118361827183818321835183218341837182518361836183318341822182918391835182118261834183518351835183518341835183118211824182018361829182918241829182118271822182718261824182818381831182518281826182818321839183218251816182118181818182518221840182818241828181318291832182218281832182718341832182218161824183018301834183818341820183218171827183018181829182318261827
1816181918141824182518141816182118151819182618191827181818271814181418271826181918241836183418261832182318201811181818281821182818361818182918291827183118301827181918211822181618241820182818421830182718241832183918321845183418321826181718301820182518281818182618141832182218281822182518211830182318231833183818181824182718321833183118201809182218241808181518241821182318201825181618341833181518191811182718131824180518151818182618211816181618291829181418281822182418181831183718301821182118291825181418221824182618241822182718311820182018171810182518241816181718221813181618201812182118311823182118291815181718171803182118231820183018251824181418151814181518171821181118121809180318251823181918111818182918201810182618231825181018031817181918171817182018221808181718181817181318171820180618261807181518021817181518111811182318211812182918071814181518081810181018201811181618211817182218031806181418171818181318181811181818221815181618091814182018241817180918161800180418171814181518111810182318231805182118201819181218121806181618061807181718151812181218051813181418171816182018131805181218201808181418171819181118121812182218201813181318171812182318171818182818071825181818081806181718101816181818151813181118201818181418181822182818181829181818191809180718131822181318191824182018251826181918191815181618301821182918201812182518231830182218111821182618131813182018221827182618251823183318161817181618321825180918281827182218291822182518321828182218201838181618191828182218311825181818251822183318261823183218261823182918351819182818231821183918311819183118211822182818241834181518241823182118361822182418331831183518231829182118171827182618211825181918251835182818331825181918301822182818361821182718211825183618251825182418271830183018271829183518311833183118301831183318261819182518341829182718341828182518301816183418271828182518221830182518341835182918261829183318211837182918271820182818251833182618361827182618301837182718231833183318261834182618321833181518321827182118311833183018361826182218341812181618391836183418261838182518251821182618321826182818251815183118261828183118271824182318221822181818241821182418301827182218361830182018201824183418281830182818381819183218241831182718281821182618281833183418191822183318211823183018281837183218171815183518281826182518251830182418261825182018301832182418251835182018271831182218311825183718321823182418301827182018321823181918161828181918171819183718261821182318271827182318251821182018241828183318271832182918321822182618231832182718291833182918291832182518361822182318331830183418351824183218401826182518311829182618281828182618291817183018331825182118151832182818271835182018361828183318261830181418331825182818241828183318351822183918281827182618241836184318301833183318261828182818201815183618221828182818191833183318241820183418271831182718251829182518251831182318191832182918241819182618281820181618401824182118271820181918191820183318331816182018171824181918281825182218361826182618331821182618131835181918241818182718161824183118261813182518301826181818271831183318261824183318291825182318221834182718181820183018181817183118341819181318231828182018161831182518231823183318271825183518211818183118191822183118391826183518291825182518241819182418251816183018111826182918391822182518261836182418291814181818181833181618251830181618151819182018241832182318241811182118141814182118311826182518161822182218211819182218281826181518211821182618291824181318101811182118191828182018161823181418081819181318191836181618281824182618271818181118211829182118251816181918131822181918191818182818151820182618291815182418311828182718161825182218281815181418111816181518171820183518091831182418241833182218271821182418331826182518211827182918251820181818271832182718211827181918251821182618221824181618271837182218351819181618321829182818191821182518101823182818201813182518101831181118211823181718141817182418131815180618121814181918071824181818091825180818111819181518131814181718201815181618231814181818161821182818201818180518241825182918281813
1821180418121813181018171823182418131817181318191808180818181811182018151816182118201818182018081811181918181817181318111817182518061823182718181823181118221812182818171817181218131820181318161808182818271828181618221817181618171814182318071819181518101814180718121821181818161816180518111815181418191810182118221818181318081809181918221821182918081807181318171805181018231812182018151813181318191816181618111819181318121826181118081817182218161822180218211816180818091817181218191813181418221814181618001812179818101800181018121824179918151811180517971809181318151793180018151813181118061823180918091820181218151818180818101810181718091819181618171813181718191821180818051817180917981806180418131821181218131808180418141818181418041815181718001814180918231801181218201801180318181810182318201811181818091811181518141825181718211811180918111804182118091826182118101823181318091815181418121813181218261811181918181814182918071824181218171803182018291813181218251820182318131822181818201821182918201825182818311823182518271828181718361828183618241835183518221829182718281844182418441828182818361844182418301824183018181821183618301835182118331822183018351835182718331829183118301838183018321825182318411820183418321832183318221835182818391813182518261826182918221810182218311813182818211819183118281836182718201832182618311824181818201822182118241832182418171835182218151835182018281838183718261826182218101839182518291836183118241827182818321831182618241824182318281823181918291813183218311830183018221832182718281824182718201831183918301829181018231830183718321818182218281821182318331834182318341833182618331824183318291831182918241833183018351842183318291833182718331829182618361837182718231833183018371828182818291835182718281827182818241824182518251831182318401816182918161829182918301820182718281827181718191834182818191820181718171819181218221814182518291821181718171828181518091816181518131819181018101807180518141805182118161811183118191808182718101818181818161816180318271819183218331824182318121820180918151823182918141810181618191820181718151806182618121827182718241817181818261829182518291822182218221809182318341831181018211825182418311830182318221821181318211820182918291831182018271822182218211821183018151814182218131808180918161816180918111811182618171819181318161822182018201831181018211805181718051817181018131806181818171812182118201818182418201813182018151825182218191817182318141830183118321830183718251832182918201837183718171830183218321827182218211824182218351831183518201829182218181831183518271829182818281830183718271832182718241843182918211827182118301806182818321837182118261821184018191827182318191825183818301824182218211820182618291827182618351827182218281834182218321830183618241830182118321814181318091816182618211824182518251821182318241833181618231825183318221819181818331828182318181819183118281838182618241827183018231828181818301826181018261824182818291824182118301828182018201816182818281825183118231809182618251811182518131810181718201823180118231810182418201819181318121810181618111806180618151814181218101799181118081817182518161818180418191821181518211812181418171813181618081812181918161821181718181807181318061815181618271816181718251811181418161811180718071812181718041810181418251814181918051805181018081809182218241804181418021815181118041809179918111809181018061802180418131805180918131804179917971813179918071809181318031798180117991808179518061798180918111806180017951801181418041803180118031809179718021805180817981806180017891781179818061803179317931789179217931796179417901808180317971793180118011794179717981807178617921789180618041805179218121801180717851812180018151800180918101789181117991804180418041805180517961812180218031799181218091798180618051808180918061802181217961808180318071794180017931799179817911801179617871793180817871793179117971793179018011795179218001804179918011805179717951793179817971800179317891801180717981802179418071807180317971799180317921792180018031788179317861798179417951797179317821798179117911787179417931788
1770177817771768178417781772177117781779178317591777176217551762177217621780176417581765176617731767176817781767177517671775177017651764176917661776176317671763176417671768177317791766177517621771176917651769176317851760176617641768176717481762175617541765175517451758175417511748175517411747175217441747174317541749173917411745174217371742174417491743173317421748173917521742173617421753173317461737173717421736173817391747173217421738174117301723171517181724171917311718172017201715171917271717171117211714172517201714171117181715171417191713171517081717169917211714170617171705170117111717170217041708171217101700170417231711171117021712170817051712171516981707170117031703170617011701170517011689169016941706169816861699170316891699171217031685169616841698168816981689169717031696168616961687170416961705170217031707170717141701171517151717172417241716173217341733172617311742173717301728174317391729173517361749172917371752173717381750175217491746174317331738173417291752173917461754173317411745174017371728174717421753175017531752174617431737175117571749173917471742174917541750174717411743173617511750175617511744174117521743174217511751175117441737174917461741173317461738174217471736174517351742175917411746174717631746175917511754176217651749174517571751174917661755175717651752174517451758175317521753175917521763176517441757174617341742173417251736172817451722172417221722171617221726170017051694169416831695169116931686168716781697168816861690169316821698170016911701171217051708170217221714172317231720171917221715172417251734173117351718172917281730172517451732171717391740173517231731174617301729172217281725172317151722172317101719171417231719171117061714171516981706170717141708171217151707172117071720171017091712173217241727172617261727173017381740173117421728174217431733174017341736174717351731174717441747175017581745173617321735173817291723172217241724173217251726172317151710172017101715170917071712171517101707171017071699170317001700171117171708171217141702171617231718172017331727172217321729173817401738174317451746174517531750175017521755174917511753175017631742176617461746173517501750174717341751175417421737175017401744173917421741173417401742174317231730174417331731173217291734173317441731174217341741174317341729173717411742174717481745174717441744175517441753174417411753175717541751174417511752176217521748175317641753175717541759176017541753175317721765176217601761176117591766175117511756175917571748174917611753176317571740175717571763173917631747174017471741174017481744174117471739174717431743174117401740174217421755174017491739174717321732174217451739173817311735173217461733173817501733172517301738172517331727172717281724173217331724173117351740174217511745175117431740175217491757175317611762175017531757176717631761176317551769176117531768176517671751176717681762175817661754176517561757176317641752175917461760176517571759175817591759176917551756176317651755175717641758174717621757176217461739174617551756175617431751174617481751174317511751174617411747175217421746173317421744175617431749174017561745175017441748174517471749176017591754175917561761176017631754176317641756175617571762175117531753174817421753174417421751173717401745173917251733173217351729173017391725172717181737172817261738173117381740174717391752175117561740175417471755175417591753176817591759176117651770176517691762176417851772177417771763177817681771176617641767177617621768177017801769177417821765176117651764176817641767175217651746177317671756175817491764175117531751175017541764175417471744174617561747174017561750174517501743175517481741174717361749175317501748174917561753175317661760176717691770176817751773177117781772177917791772178717821779178718021772178017951793178717781791178417831777179017951789178717831784177917801793179017881784179217891794178417911786179417941777179417801785179117981792179117981786178217921787178517811790177417781781176117681764176617681755176517511758175417431749175717581753175317411750174117431744173917461740174717471743174117501754
1753175817551746176017541759176317491767176117671765177517621768176617751770177417861785177317731773177517791773177517751792178117871773177617791770177117651758175917651761176517611747174717501748175717411747174217571757174217531760174917551746174017471739175417571753175117691762177117651768177217861783178217951779178417911798180418051800181017971792179117881795179117971794179518001797179317971795179617971791178717881780177417911784178417731779176017611781176717611766175717561768175117481746175417351741173717391750173517251744173617361746173817511752175617631755176217581765177917751780178417941798181117971819180318161816180718171817181118251825181718261828183118331833182918161821183118311839181818131842183318321827184318311834183318351837183418321828183618351841181218251823182118121813181818071812180418141810179918021810180817931793179517951806180417931791179217701793178317861786178217931794178917811801179218031805180818041807180418061798180518071811180518061817181818231818181518141831182418211819182618301821182518261822183718291815182518221815182118361836181418331826182918281822182818251821183218291818182118151828181818211819183018291826181718111822181018191821182018131813181318131820180618161805181518121814182218131813180718201813182718211828182618321832182218281827183118261818182418241833183218301837183718301837183518331835182818241832183918301843183318261833182918271840184718251838183118291829184318321823184018261830183618221828182418241819183618371830182918201812182018211834182218211822183518331821183618331850183718271846184418361843184218421842184418561846186218531867185218681859185018631872186018851864187918691877187418761873188318811887190118901901188818891883189018851883187918701874186118551851184218321848183318131827182118041800179417951795178017911795177717731783177717831789178217851777177417771787178917891803180618141810182218261839183418441837184618431843185718511870186118691868186718691857186718671872187218691883186918781859187118791878188118871876186618741872187818781875185918771859186418581861185218581856185618571857185818591849184718451843184018351841184618371827182418291842184018361820183918321824182818391844182918421841184218421856184918521865185718551861186718541865185618631854185518631852186718621862186218701861187018651861185318591864185318571848186018501844185118541850183718461847184818431844182818311843182918351840183518331831183518221825182218291809180718071819180218191812180818051808180817971806181218001793179518081806180418061820180518151804181018071817180818351825183018331833182418331834183818421841184918481868185618551855185318621862185718631874186418631883187618761880186718681867186718701875186418791860187118721864187718701874186718771864186518701874186718611864186418701862185718451856184618671861184718511853185718631855185418711867186418601862187818691869187618651873186818691869187418621869187018721873187318701879187118791880187418711874188018691873187418701857187418571854185818561844185718591857185718531861184718431857184618611869186418561861187418721875187218761875189018941887189919031901190719011915190118961916189919071906191919151904189919071907191119021911190819041908189119051896189719061900189619061905191218941915191219171911189919071906189819031902191319041893189618971892189919021909189619021885189818971913191418901897190419011893190118971902189819061898189519041891188918951905188818851889188218971895187918841881188218811870187318661875186118651867187518641850186618681857187218701866186518801866185918631877187218871875187418761877188318791879188718821879187618871886187818871883188718741889188418741867186218691874186518451858183418481840183718401825183018241826182518121812181818201810180918081807181518181822183818411845184318641861185718701866188118791897188519051901190418961909189919071914191819111927192119191914192319081931191819291918192019301931193319121913191819111924192019171911190919061910190519071905189718951897190319061887189318921890188918951895189018901884189118861887189718931892
