1975199519982005199819992001201119991990198919911989198719831981198619841985198519821986199219891991199019881989198919851986198319791976197219721969197119711972197419731971197519741977197619771975197519651967196319601961195419541957195519531956195819571959196719641960195919571956195519491944194819451941193819411937193519371939194219461945194919451941193819421939192919331930193019221921192619231924192319251924192719261927192919271931192619211919191619131908190619041906190019041903191119071911191719101914191019161905190519041896189718951886188918851889186318891891189118951891189818941895189318881892189018841879187518731871187818721874187318771876188118741877188018791880187318771869187118671865186018601859185718581859186118591866186218681869186818651871186118561861186018531845184918491847184518491850184918531857186018591857185518591853185718481849184518401836183918391845183818441845184918481853185118491847185218461843184518421844183418361835183618361835183618431849185418551860186118681867186918691869187418711877187918761871185018241804178717701756172517211709168816791664164216361622161516001586157415551556154415371531151615131496148814771454147114631456145014401444143114331415141914141414140814151412141914141421142714321432143414501447145914601469147414831492150615151532153715491565157215911593161216221625164316501659165816631669168916961706171817251742173617601781178417701806181518251828183018331847185318551856185718671879188218961904191019231929193919361946194319431944194019521948195119571955195519661970197419791985199120012005200720122007201120132020201420132011201320172016201920272036203720372043204920542035206120572059206120562046205120482042204220522056205920572067207220742073207620812079208020792080207620702072207420652066206720682072207420822080208420892087209320932093208920892088208220802078207720712068207320722080207520862083208720882088208920902087208520802076207120692064205820612064206420652068207220732078208120822080208020782069206420672063205720502048204620502050204820502056205820552061206120592049205920482041204220362029203320252029203120302027203320382041204820422038204020422032203920352034202720222018202020152020201820202029202620272031203920332032203320322025202820192011200620112007200320052008200820072012201420202019202020222020201220132006200920111993199719961992199119921992200119962000200320102007201120082007200720041994198819911982197719831981197519851986199719942002200420032007200220042000200019992004200120012008201420222037204320592083209221102118213121442148215721652167217321762177218121822190220122182224223822542273228523042309231823252328233223372335233423332337233923472350236423692377239124002420242324282440244424422438244524422441244224392445245024542465247924962513253025412558257225802586258925942597259725932597259526032606261526242641265226682685269527122720272927362733274127392738273027332729272927312741274827612779279428182835285328672880288529002907291429132918292329272927295129632984301030333069309931263160317632063219323332403250325332493259325832683281329233143342337534033443348135083537356735833595360936143614361936193617361736233629365536693695372637653785380638193830383338463825381938023787377037573601349833963298320131173020291228252767269026062535245523882312224621742091204519781919185817921729167616131561150614551406134613011258121611701125108510401005096809340896085908330795076407400708068006530626060305710550053005060477045804360421040503780365035003330316030102900272026402430238022102140204019201780167015801470144013101330120011301080102010000090008000800080008000700070006000600060006000600050005000600050006000600050006000600060006000600070007000700070007000700080008000900090009010301060109011501220128013601350141015101540163016601700178018101870192020602130218022702330238024702580259026802720285029102950305030903200324033803420350035703660377038203920399040504160423043504420450045804630474047604900498050205170526053205440559058106030640067307080749079408360882093209801031108111321185
1246129913691447152316051701178318771970206221602237231223842446250725612618268227402796286629433022311332013269335034133476352735743612365136773715374037743792381838533889393439694001402340274033403740334033403740394038403140354029403940314026403440324037403940354031403540384037403740364035403440374024401339973976396139513935393639413947396239733991400140104013400439983979395539283898387538373806378137573732371637003698368536743655363236113580354335133469342333793337328832443204316731363108307630513035300929932963293329032873283428012760273426892653261525812550252224922476245924432428242024102400238223602340231322962263224222142190216321462130211721062099209220912090208020702065204520332017199119751951193119051887187218571847183718411837184118371838184018351821181418011783176517531729171016921677166816631661165816631666167216731675167016651658165216261614159815831565155115371529152315201528152815321540154615481549154515421529151815051488147714581455144214321437143014351442145114581469147214811480147614701461144914361424140413931384137713711380137513701368136113601347133313241307128412621247122711981184115811411125111311051097108710851089108710791069106610591039104210151001098709730958094609330930092109250921092109200921091809170910090508980887087508710858085308330829082108180812081408090814081608180826082408200817081508110782071906750635059605530515048504480416038403530326029802690243021301910164013701190009000700050003000100060002000300040007000300000005000600010007000400010000000000000006000000010004000100050003000400050006000901100106014401650186020202190232025402710285029803200341035403670396041704470460049305180538056005840611062706340652066106710685069907140732075407470788081408280856087708990893093209460957096909810990099410071014102910401040106210801094111811331154117111881200120712181225123612501247125812581261127612851291131013311349135813771383140514141418143114331441144914521452145514631472147714971476151215251539155415731579159115991606160816161609161316171621162216291633164016581667167716881702171117251732171917341744174717401744174817431720174517491755176917731790180518101822183218331839184218351837183818311830183018201819181518201820182718311840184618531857186118661862186218541856185118351831183218291821182118311835184618491857186718711874187718761874187618731864186018551849184018381838184518481851185318581868187218751875187518731863186318531843183418291823182218151822182518281834183618381850184818531842184418441830183118221818180718081799180417971804181218141823183018361840183418411842182818281827181618121805179518021796180518081812182118301836184318481850185418501843184118391830182118171817181518231826183618401841185418621871187518841883188018861881187618731875186918721880188418881904191919381954197419932007202120332036204420492050205320572053205920712087209521182135215921882209223122502265227922912300230523072311230923142314232123282341235423662390241224272445245624702480248524882488249424902490249224932496250425112530255025672589260526252641265826702681269127042706271027142715272627322741276627892818284028782903293129502967298329892989299529882983297729722967296429682979298229973010303430653071309330893092309830923080306530533036301930032991298529812986298830053007301730253035303830422965286027682676259525172432235722782213214020661996192918651798173016701606155114951440138613301285122911881142109710581008098009460900086808350803077207390707068106510618059705670546051805020476045504350416039403720362034303230308029402740264025302360228021201960192017701660156014801410141012801180112010500090009000900080008000800070006000600060006000600050005000600050005000500050005000500050006000500060006000600060006000600070007000700080008000900090102010501170117012401220135014401500153016501670176018401880198020302090218023102350237025102580264026902830291029903060317032003320339034603550366037303820394040604140421042804320449045204630468048504900499051205160525053305440552055905720581059306020622063906570690072407530791
0822086209110950099710581112117212371310138114661538161916881768184119241984204821062182223122852343239624432515258626562733280628802952302230723138319132323269330533393374341134353469350835513599364136983756380938613904394939794002403140334037403640314035403640334036403540344037404140364034403740354034404340374033403440354031402140033995397839813967397139733981399539933997399239733960393339013864382537923749369936633618359035563520349634693448342533973371334233133284324532143176313730983061301929782941290528702838281027822756272827052674264926112583254925102479244124022365232622992269223722132182215521282107208220602029199419741938190618731843181017741739170816811657162216001575155415221502148214641434140913831367133713131289126112381213119811771152113911211101109010681052103610100996097609540934091508920875084808270809079107730750074007260705069306730665064406330618060005840568055605490528051405130497048504810474046704550449044004300432041904120404040003880387038003740369036103590353034803480345034803370343034903370333033303320328033103280318032703200320031703200320032503220322031303190314031603150312031303130318031403100313031303150318031703180324032503310328033403360345034303480350035203570362036603750374038103800393039104020408041004180425042504250434044704460456046104600468047204780482049404980498051205160523052905370546055305560566057005790581059405980608061906190626063606440652066606680679068106900694070907140722072907380745074607570763077907840791079908090817083008370848085508590876088308910904090809210925093909390950096109720982098609951002101410241035104210511061106510691083108610961101111211141118112511361133114611491161116611701174117511881192119712051209121412181224122912331242124412481256126512681273128212851289129413021308131413191326132613361344134413461355136113671374137513791386139014011402140114111414141914231433143114401445144514561462146114731473147714811488149714961503150215081515151215171518152015311532153815441549155715541560157015661572157215811588158615961598160116011608160916131615162216281632163016341636164816471647165116581661166116661669167516771681168216891691169316951703169517071709171517201721172317281728173317371739173817381749175017561753175517581767176717701769177517711777177817871785178817921788179317991798180018041806180418071811181818191818182718251831182718341836183918391845184118461853185318541855186318591858186018701866186518671866187018801873188118731878188118801883188118881895188918941895189418971898189719001896190319011902190419071913191319101918191519141920191819201921191519201923192119251924191719271924192119221929193019331932192919291934193219371935193719381941194519411944194019431948194619451947194919481946195519551954195519561958195619601962195919591958196719601959196419651967196619681964197319741970197519731976197619721977197919831978197719771981198219811976198319821986198719861988199019911989199219891992198719941991199319941993199619961997199119971993199819981997199919961994200619961999200119941994199519971999199519971997199919982005200019982003200120021999199920021997200119971995200020021995200120042003200520002006200920032003201119992007200120002002199820062004200420062001200420052010200720122010200720092005200520112007200620062006200720052005200620032012200820032010200720082005200220072010200420042002200820042006200320052007200420052006200120072010200220022007200820092010200820072005202420052008200820042006200420042004201020042003200620082007200120021999199819981997200120001999200220062001199820002001200320022005200119971998200019961998200319962002199919981999199419982003200420002000199820022002199619931993199719951999199419931993199219921995199819941995199320021995199119991993199019891989199019901989198819951991198519871988199219901990199319941989198919891983198719861991198419831982198919901981198619891986198919881990198619831979198319831983198219821978197319771978198019791979197919801974198319821981198119791979197819801982198319791982198319841980198319791986198519851981
1979198319831979197719811980197819771978198119781976198319771977198619731977197119761977197219781975197119721973197719691966197219711962197519651970195019721969196719721968197019701964196919671969196619661965196319671967197019661966196919671970197019641971196819701964196719611967196719651970197219701969197319701969197019681969197219661972196919621971196519681968197019691965196319671963197019711965196419641965196719711965196619581962196419621964196419571967196219681966196319631959196819621968196819631957195919651966196219671966196319671962196519671971196419611965196319661963195819661963196319641956195719621959196019571964196419641963195519631953196319591955196019571960195819551956195919581953195719581962195819551958196119511953195219541956195719551960194919541958195419601951195119541959195719561955195019541951195419541961194919561952195419541955195419511956195719521959195719571957195419611955195719511956195519501954195219501949195219511950195619571952195419551957195619541954195519531956195319571952195319521949195319491957195019511955195619481955195019581948195019491948195319481953194919551953194819511955195219551952195119511958195319531952194819501944195319481950195119541953194819481952194619481949195119501942194719431953194619461948194919461943194319431947194719471942194719461949194519451943194419481945194219511943194419401944194319401943194419441937194219461944194919451946194719341945194319381941194119421943194119381938193719371944194919391941194119441940193919361931193919341932193019351935193319351933193119361931193019321928193019291928193319361929193519301929193419331930193319321935193319271930192919311934192919351931193119371929193019341935192919321931193519291930193619331933193219371932193419331930193119331931193319291932193519341935193419361932193519291926193519291929192619331928192819291933192619281924193119301927192819311931193219311930192819311930193019301926193119351929193219301930193619311928192919271932193019251931193219291929192719331933193219251929192519231924192719281930192619291928193519251933192919291930192519291929192619281930193019251925192719231927192119231922192319231943193119301929192819251921192719311926192619311926192319241927192819281929192419271926192419281925192719241922192519261928191819231923192919231921192319251924192319191919192419211923192319241919192219261921191819191921192819241924192319181924191619231919191619231921192119211919192019171921192019211917191919191918191819101919192119131917191919111921191719201917191819201919191619121911191619171922191619141914190919121912191319131914190919121914191119101911191019131914191119111912190819061912191019051911190319081911191319101907191319061912191019071907190519081908191019041909191019081909191219081904191019081904190319061908190519021909190619051906190319081908190419071911190319051905191019081906191019061905190919071908190119081906190319071907190519011905190419021900190619021905190918981903191018991903190319061899190419021903190619041902190019021900190619051901190119011898189918991921190119051901189919011898189619021897189819021895189818981896190418971898189418951896189718921894189218971892189418931896189618921895189218971888189618921894189518911893188718901892189218821887189218931894189018851890189118831889188318851889188018841881188218811880188018811876188218811881188018841880187818841879187718821873187718781879188318731878187518741883187818761873187418711865187618701873187618721869186618701869186918721873187718751871187318751866186618731870186718621871186418701871186718681869186718681868186118621866186418671867186218681863186318641864186418651861186718631869186518571862185918661864186518661867186318561862186318611859185718561854185818581863185518611857186418611860185818631862186218571863186118561858185518571860185818571860185618631865185818591859185918611852185618631859185418541856185018571851185518511855185618561850185518491855184118431845184818511849184318521854185418541855185318671858185618581857185618571857185418531856185718551857185418601858
1851184718561856185418541854185518531859185918571855185818541855185718551862185618491851184418581856185018571847185918561854185718571857185018461833184318491844184718481847185018441847184618431844184718451845184518451844184718481841185018501851184918431846184718401845184118431835182718191824181818101805180918021808180818121818181518191822182818321830182818351837183618421837183218411842184618451848185218461858185518651854185818631860186018581863185818561861185818551865185718631861186318601858186418641861186818581859186118611858186118651861186518551862186218721864186018641862185818571860186318611858185818621856186118581864185218541859186118651862186018601868186118621861186018571856185618531853185018491843184518451847184218371837183518461842183918471847185318481854184518521853184718521851185618541854185618561861186418611860185718611864186218641862185718591860186018631869186318621861185818661868186518611867186518641857186418611856185418561855186118611851185718561853185718541860186118581863185818571862185918601857185318531856185618511843184918441845184718491851184418481842184718411837184218411838183918381837183718301829183618271834183418441838184118411846184618491847185218551851186318631860185918591862186218691868186618671865186618671863186618681867186418701863186218651867187218691860185918671864186018631863185418611859186918651854186218531858185918571868186718741869186718811869187218651870187018681871186718651867186318681863186318631867185818601860186518561854186318571863186018621865185918631862185818601867186818691869186618681863186718631866187118621860185218561856184518441843184118411838184418451852185318591857186318611870186418701870187818811873188118811877187918801880188018871880188218831884188418901884188118821883188618831885188418871887188518861886188518851885188618921887188118811881188118831881187618791872187718751875186718771864186818661874187318701874188018751878187718731877187518771873185918641864186918621860186218621868186418661874187218761881188018741880187718771876188418791880187318781871186518621861185718631859186118511857185418611862186318641868186918711872187818751877187718811882188118801882187918781877188018851879188418881881187918781875188118821881188518731887188118801884188218771876187218741868186718661865187118641872186518741871187018711877187718721874188018671870187718831879188118801879188418851877188718941887189118871893190019011892190518961894189218921894188818831889188218791883188218891882188018891885188818881888188518931888188718861878188118771880188618711881187918781880187518721879187218801877187618671865187418661865186718681860186118661866186218611868186718661874186918741868187518771883188018831885188318871893189218951887188918921894188618861897188918971891189618921888189518981897189418991900189718991892189418891889188818871893189218961891189718921893189619011891189618891886188018831881188218791878188518781875187918801882188118861877187318721872186618621861186218621861186118691869186118611867187518741872187818841881188918901890188818931896189118931896189919001891189518901886188818821886189118931890188618901899189218941895189918911895188718951890189518911891189418901890189218831883187718811880186818771872186318601860186618561857186118581857186618671866185918641865186518621860186318561867185918521856186218591860185818531853185918591867187118671871187018641871187418791877188318771873188418791877187818831880188218851880188318711876187218751863186918671860186918771876187118791875187318851880188618851884188618881885188718921890189118871891188218881887189218901891189118921892188818951882189218851885189218841884188718821886188118861883188518831881187818871882188418821883188618811875187818711869187518631863186718721869186718611856185018531843183618311821182518121816182518221829182418351845185018541848186118691867186618691866187118751869185918721866187418721874187418701871186818721877186718791868188018811871187018731873186718651868186918671871186218651872186918671866187218701870186718721875187318691874187118691874
1875187718751864187218561867186718701874186518571866185918651867186718641858186618641861186918561859186418541855185618511848185218501850184918491858184318521844185718531851185718541849185118641852186118551865186018561851185218581857185418591847185518581866186318611861187118601869185918641857186818591858185818581858185618561851185518451856185118581846184318511844184318471838184018501835182918421840183318371836183318311832183918371835184818431844184118401845184318401855184118361855182918381837184618421836184318311852183618371846184318491845184418351848184518531843183818301839184118481842184118401846185818431845184018491847185118531848184518441840184518451841184118301845184318411842184618381841184118401840183718411853184218441849184118421833183218411831183818361835183318341822182418091818180318091809180118021804180818151821182518261836183518391837184218301839184518381845184018371831184218291827182618161823182018291838183218291833183918401837185018431844184218501839185418441858184718511855184518551853184218441849183718551842184918421843184918581853186118491856184218511852185018461851185218501854186318491855184418411835183618241831181918091812181518201817182118311833183018321840184018411846184518441854184818531850185118591853185418521859185818601854186018641858186518601863185718611850185518621858186318651858186718601861186318671868186618651864187818611872187318691867187118691869186418691856186918661866186118611856185918511857184218531848183618421837183318271831183118301834183618361851184018541853185418511850185618521864186718681867187118641867186718711870187618781874187518631876186918821871188218711868187418651888187518801876188218821876188118651876187418781868187818771870187118711864186418731875186818741876187118611870186618721871186118761872187718761871187818731871187118751868187218811884186518811868188118671870188118821876187818751879188818841880188218811877188518711877188018781886187818821883187618871887189018851896189518941893188918931893190218941886189518941889189618921896189718961896190018851897189818891887188818861885188618841885188018821878187318831881188818861894188918931890188618791890188318831888188718761878186618721868188518721883187918801886188918891888188518891879188118841889188418891885188818791889188118851889188618891889189018841886188218911899189318891896189118881895188618981896189418841885188218851888189218901890188418841881188118821885189018811881188518731881188118781879189318801888188018861887188518891886187918811873187418801879188318781879187718691877186518841880188018911882188518931892188818851898189218871893189018891893188418921891188818921892188718811892189718891891188918931890188418841885188718941895188718901884188618911886189218831888188518811889187518831881188518921878188918931882187918811883189518901887188918931887189118901895189318991887188718851890188118801873188118751866186718701868186618701876186418751873187118821880188518851880188518831885188318831882188118901887188518881891188118841881188318811880188418881880188218861888188518781878187318781877187718831885187218901887188418851885187618851873187318691872186118561860186818681862187818661883187718731878187118721882187818801879187718831878187718881883188318841882188518831900188518931890189118831891188818841878187918861882189018931886188618921887188718871889188518811874188718761872187118761872186618761868186618601867186118631857186218651863186718701870187218641870186818741869187718751872187218751882188418841887187418721880188418721877187618681876186918761871186818691857187318591862186518631861185218651866186118641858186818691872186018701865186918601871186918591863185718571868186618581856187118701863187518691867187318711865186718591876186418771876187118681860186718661863185818681869187118681871186918661863186418751870187018751869187318741874187318691864188118681865187318641880186218711863186018541867185018581856186018571870186418661866186718691871187218591858187318661872186718731869186318621860185918501871185218541858185618611860186018611873185518691865
1866185718681858186618671863185218621858186318561865187218651877187118741876186518641871186018641866185918531858186318611856185918551855185318431857185418571853185618541854184918521850185318321850183318391833184418431854184818521859185018521864186318641863187218701868187118591868185918591858186518641864186518741870187618671872187118781862187418641856185818581856184418481849185018471850183918431833183718491850185018581850185718661867186318631858186418571868186818621872187318611859185618591853184718591861187118611866186318631863185618611849186418591850186118621864185918651859186818591864186718721862186618571860186518681859186118591856186318621859186118721860186318601862186018541858185318431844184618441858185318521856185918631872185718641856186818611864186118651862186118611844184818421844183118311834183618361841185118421849185018531859185518541857185718581846185518511848186118661859185418571868186118631863185718571860184918641857184818551861185618641867186318631863185718651867185718581854186518531850186318481852185318441855183718471856184918541859187018661862186718701863186518661872185918601859185718581857185018541856185318511846184618491845184218531836185418461849185118391845184918491837184618421843185618551852185618531854185618591857186118531850184618461845184918491843183218381834184118341833185318381852184118511849185218541855184918541853185718541854185318671865185818571856186418551853185918561855186318621858186518591857185818631860186518581860185318581859185318581855184918611849186118551851184318461838183318391825183518291841182218261838183518481850184818491837184418391838184618431852184118401843184618541860185318551862185818541851185018661857185718531853186218661855185518601860186318561851184518591855185418421848184718571852185018571854185318491847185418521859186518471854185218551851185718481847185418421837182518351830184518381837184518441840183718521839184018411847184318501855184718501855184818471849183918371838184418401838183318401842184318431841184318321837182318251827182618261818181518131804180117991795180817931797181618171814181918251827181618131804180517951794178617811756175617541738172317251709170916871675167316601667167816781692169417001697170417021703171116951701170317021718170817211729172817301711172516971681168416691650164316321616162216271627162916261609158715781565155015211505149014681461145814581464149715021517153015321539152815241522152515281541156015671582160516201642165816721687166916701665166016551648162616071593158315651562156115581553154815621577160416341667168517231732175617821801182718621870187618971905190319191933194019361925192119121874186218291814179117791762176417421730172417181724173117311717171517081710172917391757176817781776178517851770177917601764176917671785179218091818182118161790174517091696168016841713173217461768180418271841184418541845184918501852185718701871189019051935195019581985199620122025202620342024202320112000197719791978199219951988198619791976196919501947193719351933193119431947195719591964195719661965195619531932192518991891188018881887190319161934195219641981198519811992199119901996199820002019200220021976197719661952194019131891187818631870186118561852184518341840184118621877189919211950196219751990200420252041205120852076211221182119212121122101209020752057204820412027201920222015202920442045205820642062207320712067205120342023201419881960194519161887186618511841184918521856187418761894189319041922193919611994200120132025201520192021202820151991199019831980198919932002200020072018202320372041207120722083210021012110211021032100210621012100210121022110210420862089207720622059204920372020200319931976195119221900187318491856186318781894189119021912190419131912191019331942195319641948193919211922192719261916191619281936196619862005202220262034203620322027202820232010201320031992199119791980196519601960196719641975199319851982197619751977197819801973198119921990199720001987197319591941192519221931193919471962197719751999199819911990199419641966194419191896187318651838183018131791
1774179517841805184118651888191619281943195119531961195319401912188218621842182017981795179617991817183518551868188119071937194919651991199519941989200920052004198619931972195219501944193319311928193619251919192419121931193719601963197820012018203320252032203620332029202520151991196919641947192819061901187618671842183018151798180118061829185018671877187318641859182817891763172417311737173817371757177617981820186318831896191319231922193919211926190719131906191119061898191319071913192219231923193619411941193619111919189118911879188018731869187418711882189719101923193119231927191519141909190018941903189318851891189218901878188618791882188418851883187918891883189018881911191619321940193719331933191018871865185718391819181117971798179517871787178017661757173817141720171517321758179918151849187218921894189318921898188618731904189719071917192319241928191519161904190419011897188818851884188418791866187318651860186618601866187318821886188718871881186418451837182818121793180318041800182618501875189819151933194419401943194219461948194919481941193519301931191219011893189918811885186518421809178417581750174317421766179918261843185918831888188518771860186118401841183518151819181918171819182818431858188618941899189718741857182918091783175417531763178618141847187519271950196119771987199319811979196919461935191518971892189118851879186918621835181818061786178117741780178918271837185518511851184118381828183518411852185218651860184418421839183318131810179217871767173817331734174717631789181718421870188319151915192219411939195319461928192519091888186718761869187518781861184818451836182318001788177517791782179718231829185618611884190118911875188018721830182017981796179118031801181518041819182118221812182818171803179917871799179418071809183018411863187918831902190119021900190019081896187518471820178517711754174017451756175917751794180718261831184118521869187618821901189718891884188318761863185918461857185618721877189119001910190018971896188418791866185818501841182118171782177417491745175217711779179818141830183718281837182217931768175917421746173717411744175317711766177517841800182618391859186618771878187918691841182217941762174617121706171317331766180318061825184518601876189019001897190119081910190919221917191819211922191019161924191919031908189918911893189219001889188118841863186018651866186318401840183418191809180517851776175717581750174517231717170617121705173117461752177517901803181018171828184018331841185318531865185718671875189018791881187118831877188118811879188918791878187918821888188818841899188918921884188318801880188818901892187918951887189118961893189018831877188018681870185318411829181518171810180818091792179018011806180018231814181118251831183818421844184118501840183018291840183518201825182918201827181718251837181918291833183418341826182618261834183818431843183618481852184718471840184718491844184518471849185218511849185418491846185918541857185318531853184918471853184418451846184518461840184718371836184118311835183418401829183118361837183718291822182618121808179017821782177617711778178417761787178617921799180217951795179618081798179617891789179317871788178417901783178917891782178017711772177417711777177617801769176817701776177517801785178617771795180117881793178517891797179518011790179617961801180317871793179417901790178717891795179617961791179217901787180317891797179117911797179317931788178717811781178117791773176217641749174817411736173817481747174817561751175417531763174917661757175417601745174617511754174617481747174817431746174817591764176217781755176717661763177317771775177317691768176917781775177517701777178417741779177717801771177417701768177417751764178117771764176017731774177217651760176617711765176017621766176817701764176217591752176517541758176917431749176117601750175317471750174317511748174017361740173617351736173517281739173017231728172717471729173217381736173517371732173717351735173617251736173317361733172817271743173317271732172317291721172717391742174217381737173917391742174317381753174317511754174717391746174117431744
1740174717401756173617441741174917321737173917411744173417331737172817181706170217041689168016671664166316571649165116421629164116411647165016631680168016791690169917091700170417031704170917001693169316991703171517081711173117191717172917231734173317351728172817361741172417381739174117311744173417311730174117351733173717481726174117351726174117371729173517351735173017351732173717291735172817341736173317291732173217351729173117241728172817201713171017161710170716971688168616801674168116651667166516791673168016941691168816901697170017121717171717161723172317261730172617291722173017211728172317281733173417391748173917371741173317461743174217451760174117531758174417591748174917601753175117491747174817541748175717491749175017471744175017541754173917471743173917391752173917331730173617351731174517301738173417321736174017381727173017271739173817261720173917351741173517311733173017211729172117301722172917401744173317411747174217461745175917521748174817541750175017551764176517601761176117681761176317671767176617621763176617621769175817641769176217641754176117601755176317671771176217761775176917711771176517661772177117731771177117601766176917741768177517691769176217671766176717671768177417751773177517771768177217741759177117631760175817491755174917541753175017521760175017571762176517691762176517671757176717671752177217641770177617771780177517811787178217821781178217871780179317861784178417871780178517911790178917841790177917731777177717721768177517641777178817791784178317861786178517881789178617961788178417881790179417841786178317931791178817891789179417871791178917841794178717901784178817831790179117871785178918031787180117961809180017981795180117971796179817971802180218011795179317991795180218061800180017931788178817931780178317841782178117791784178717771787179417941794179718031806180018021792179718041806179918041797179917931799180518001789178617991795178817891795179217951789179517971799179617951796180117981796180418061806180318001802181618031805181718081804180318101803180518091795180217971804179918041797180218161804179518031806181418231818181218251820181518071813181618111820182018031817182018161810181618111824182118201818181418151819182518241825182818141825182418211820181218131802180118021795180017961810179717911797179818041803179918061806182118161818181618211832182018191824183518231811181718141809181818181811182218291823182018251816183318241829182818271826181918321828183018321829183118331830183318371841183318351830183818361835182718371832183218331842184218351836183618401841183418341839183118331828182418301828181718191828182418241821182218271816182418161823182118091815182018161824182218181806181518151817181918091819181118131815182318271840183718321842183618381839183518401831184118491844183718361841184518481841183918501849184418451853185218451848185018461856184718481843184118431840183118461829183118411834184018431839183918271831183418371831182418321828183318351829182618151822180818141815180618081806180018131818181518211827182818181833183418371842184418391842184118461856184818551848185218511849184618491845184718391834183718401838183118501840183018341835183018341841183018321834183218371837183618391841184518471845184518531845185218531845184218481840184518401841183918471843184118421836183018261831184618331825184518351840183618421840183918371834183818371841183218341841184718371836183318361843183918291828182318131819183018331819182618281844183518461847184518551854185318611852185818481859184918461843184818391842184918551851184618461847184018501848184718541851183818481854185318561843185218571854185818491841184918381834183818431830183718361848183518331840184218411844184218441829183618301830183818311835184218411857184918491847184618481845184118331832182718281822182418281827182918371844185118371855185718461849184618541846185218471845184018391847184118331841183118391842184218561853185118581850185918501853186218581853186518621863185718611857186418551857185818571857185518581845185718591854186118561856185618501849184918501844184618481849184918551853
1857185318541842184618511849184518301832183018321822183018271828182618291827183318441838185018371847185018571861186218591861186318601865186418681862187118671859185618481855184618441855184118561844184918421850185018451851184318521842184518531836185918511864186518541860185718691861187018691856184718561851184418411837182418381834182518361833183018401822183418271835183618411836183718431840185018531856185318481847185718701862186118601870187318811875186818761868187318801876187218661881186918721866186118661865187418611861186718601868186018611850185618411839183518331826183518361841183418441840184818491841184518421852185418521851185418521845184918491840184718541851185018511838184318551852184618431851184518451854184918611866186018611866186818631875186618751873187518691871187618641868186518581864184718591848186518581866186118641869187218721871186518701878186518651869186618651858186718601866186418621863185418661859184818541853185218491851185618601858187118721868186018631858186318561864185718571854184818551860186318601864186518611866187518811874187918811879188718881885188318861884189618891885188718891889188518821884189218931899189618781887188018771880187518821871185818531857185618431844185718501860186718641862187618751872187118761873188218701864186118631856185318461855184918501844185418581857184718481850185318461857185518501845185418611856184918541865187018701864187018731870187018721872187418721866188118741867186518671866186618651851184618591856185118461854184718471847185518511860185018491853184618491852185318551846185018571861186018641857185718481857185718531851184818561857186018541849185018411849184218441852185018421852185718501853184918631860185118661857186318601859186718581857185618511853185718531853184718451840184718491836185018341832182218281819182118241829181718331830184018491837184418511849185018461852185118481836185018451844187218571855186018591861186718601861186018621861185518601856184618441837185118491845183818411841184318401847184618411845184318481854184918441842184418471848184518461849184618421834184918441843184318441842184418501841183618391847184418451849185518521859185918601862187218641868186418691873186618611866186218631864186018641859186518661860186018601869186818651861186018631859186218681862186318641855185718541863185218541857185818511853184818451846184218381837184318461841183718371828182918261825182718231822182018181825181718231827183718451848185118591862186218681865186418671864186718631862185918471852185318531854186318651864186218681869186618661865187318701866187018651872186718721872187418701871186818641863185718661858187018711869187018851879187518741878186818621869186518581858185018521853185818521856185118571856185318631865186218571867185718651862187318711877187418711867186218551856185518581864186518691869187318761877187718721878188218771883188418761884188318821887188518821877187618731876186918631866186718731870187518751879188018761880188318821882188718881876187918811867186618651860186018541854184618531855185618601861187018641870186018641858185618591864185618661867186418741878187618781879187918841884188118821885188318841878188418861883188718911886189118911884188318831883189218861885188618871892188218871875187818791879187418711879187518781881188018821886188218851871186618561851184318371831183318401849185818641865186918691866186718661871187718771870186618881868187018681864186118731865186818731867186118691873186718741872187518781878187318791878187118761878188018731879187918771882188418791882187718821878188218751870186818681866186418571858186418631868186518661866186718641863185818511851184618451852184818541862186718691874186918801882188218821881188718841883188518891886188718961892189118921894189418841885188218861885188418831883189218831885188618851887188518781877187118751872187018641866186518661875187518771876187718791883188218761884188318771879187918721870186118671862185918611877186318731869187418771877187918741879187618721879187018711866186618631864186918691875187418791875187618831876187118771878188118811884188318831879
1879187518811885188518741880187718781878187818721876188218811882188118801877187718761876187518741866186218501849184618341837184318411848185118591863186218701873187018681867186318551861185818671859185918581866186218611865186418701867187318681865186218711873187018731872187318741869187318721869187318681875187018761867187018721862186018551854184218401840184618471857186118711863187518741874187418691872187418771873187618741873187918741874186818751872187618741868187118691861186518571859186018561859186218641869187618701872186818701868186118721869186918681857186018591863186718601864186418671873186818711868187318741873187418711870187318711867186318491843183918351829182418301834184118431846185618551859186818611864186618671867186218651871186418691866186218681859186418591863185218611851186018551857186318601856185518571857185918571857185518571857186318631866186618631861186118621865186918581851185518561856185918591865186818641863186618591860185518621868186518641859186318581862185718461853185418451846184318491846185418561858185918521860185118541858185718531849185418541854185318501857185918471853184718521845183518371833183518311833184618451851185218521853185218501851185718571864185918571859185918621862185718581844184218461836183818291840183618471857184718491850185918561858186118611863186218581858186118581853185718521848185118461847184818471852185218461848185318551853185318501854184918521845184918441847184118421842183518441844185018431855185718531851184918481845184618411838184118421841184518461859185818561853185218511854185418541853185618481853184918441846184018451837183418431841184018511851184818491845185118521844183918431850184718471845184418341834182918231813181618141816182318301845184318441842183818381841184318441844184118411845184118471841183718421845184318471845184318361844184618431847184418451843183918351830183018321827182918311832182718361837184118411834184618401832183318261817181618111813180718091818182118321830183218341837184118291840183918391834184118321838183318311830183318301826183918351835183018371830183618321835183118341829183018291833182718311825182618311829182918321821182618281828182318241829183318261826182718281830182018311828183718281829183118291838182518321832183018291824181918201828183218291827182418231829183118271832182418331831183318341830183918201826183018281832183018291829183618321829183718321832183818241835183918311833183618311834183518361840184518371835184018391831184018401829183518301828183518351829182918391834183718321839183418361832183518371836183018281830183218381831183418281842184418421841183818351831183818311838183518381832182818291821181718171812181318191822182518211832182918311830183218311829183118401837183418321839183918391840184718481846184518501850184918481845183818401826182818191821181118041809181318221820183318311830184018411845184418511845184918441844184718501850184918501848185218531847185418581857185918571861185918621860185818571858185618591857185618501849185118531853184518461848184318461845184418491844184118491851184818511850184518451853185418571857185118511852185118581850185918591857185818541848185418551850185018571851185918601861185918551854186418511851185018491852185418471854184818551854185718591860185818561861185718631856185918571856186118591853185218581854185818531849185118511853186018531857185318521851185118591847183818421832183318331826182518351831183918351842184218421839184518351834183518361833182918261826182918331826182818241819181818281829182418361836184118361838184318441840184418431837184018351839183818291826182218231826183218251828182918291826182918291832183118211824181818191828182218221823183118251822182218141808181018061806179617961803180117981797180118091807181818171825181918211820182518201816182418181818181718131806180618011804180317941793179518021794179818091809181218091819181518201821182318241825182618311824182718261824182618131813180618091801180518091812181318141809181218101816180818141810181918191818181618161812181318111816180918121810181218131804179617991787177517701765175117531744
1753176617611763178117721781178217861789178817841789178917801780177717781772178017731775178017771782178617911779179417971804179618081798179517971789178517801781177417761769177317541775176317651764175117491729171116991687167916651652162916261611160015941590158615901601159816161627164416461649165816571660167116791669168016791671167416661672166916681675168816951693170517131713172017221712171517091702170817031704171017191715171917181720172417201726173217371731174917591755175117541749174717281725171817111694167816611645162716091591157015521545154715611566158916151637165716731685169117041710171617181723171317081700168716721655163816171609160315971589158015731573156815671572158716001629164716651685170817241725173717421738174017471751175917541757175417431730171716931696169717061714171717241719170516951673165316351639164516451655165516591649164316321615160015771557155015401537154015521560157615911611163216411649164616501643163415931568153815081482147814891502151715311554158116021627164016561669166416581645163416141588155615231500147614601459145014501463148815291563159116171630163916531658167116751674166216421627160215811585157915941619163116491651164016211599159715931625165216821722174417571765176617571748173317171701168916771662164616401647165916531669167716881692168816771660166116651665166416751683171217251747176617861785177917681767175917361727171516961695169416971707173117551787180318261840185518561857182717901743169516461625161816431681172317521794180818181824181818061801178517611742172517051691167216791695172617711811184318771897191919281939194619551954195619481939192118851847178417041656161415841585160216321671171317481764177317771774176317591765177017891822183218441850186818851894189919091909190418941898188118861871187318771883189018931890191719201936194419441926190618811855184218331836185118561862186618661873187718841896190219261932194619621970197419831969196419511933190518841866185918571866187918801915192619321932193019161906189418921887189919221925193719301936194819371918189318731840181217821767174717381733173817551777179918181826184318571861186018721880188118861886186818691856184618301816180718181831184018631875187618771873186918671868187018651892190819351957197119821997199119821959193619071880185718521879190019211935193319341926189518731851184318191808180518011810182918381854186418821880185918601859184718551860188118941902190018931875185718481827181918061790176217291684164116101593159016161677173017901841188819151942192619211911190719041908191819351951196619701979199920042027202920362044204120482044205320382029202420082004198819861987197519481913188118571826181318211838185618621877189419131934195419631958196819821983199219851978196419531933191919191911190218991905191919231913191419081915192519331939194919671977198619841978197119541932191718931884187318631873188518991908191819291937195919641964197919711978197419671975198019741982196819571948193819321929193419341935194419521952195719571957194419381924191519001892189318841883187318401822182018101812181718241825184218521857188818981919192619221926192219161913191519101908191419171917192319361940194719471948192819291916191118991889189619041910190619161921192419301939194519511951196519591964196619621963196719541941193019111879186118371826181618201812179418011798179017941788179718011814182618461845184918431842184118501856186118681866186818691872187518801890190519081919191919231935193819401941194119451948193719371929191919201923191719261923191019141893189318791875186318711873188218951890190619131921191619101899187018301794176517401738174217571771179518141831183518361840184618511849185318711878189518981896189318851871185618461844184718541866186718761883190019041922192519361947194119501954195719521955194619421932192619161907189418921883187418751868187418671881188818841885188918811881188018811891189518971897189018921886188618791873186818691866187018791873188818951903190719111915192219241924192219351945195319581964196919631965196719491961194919601952194419451949196019431961196119681976
1974197919811984198119851981198219921989198419871986198519781971197919651959194319281913189618891892188618811878188718831880188618831889189419091906191419131920193519351943194419301936192919221915189518931888188618831891190919191936193719391945195419581955195819601969196119651963197119681966197319741969197419701970197019721965196619671964196819661958196019631956196119601960196219661957196719641956195419531953195319501946194119381927193219351929192119081904189218731865185218381840183718531865187118731882188018891891189118901894189518981905190719121910192019251922192519271921193319331936193619341933193919381937193519331941193619321937193319381935193519361935193819301932192919291939193119331936192519261926193219281928193119291927192219261929192819271924192119191922191219141918190619111904190819051900189318951891188918761875187918631865186218531856184518531847185218611866186018651877188118811890188618951890189718891892188818961893189519011895189818911894189218901896188718921886188718941891188618861887188518861884188918851890188718861888188118801886188118801881188618811888188018791879187818771876187718701868186118561858187018401833183818341834183418411837184018491847185018531847184318381834183918351826182318261828182718301831184718431842184618401850185118431845184518471847185218521858185718621861185918651864186518711864186618601868186218661861185818621862186018571854185018501843184018411835183318281819182218171819181618291826182418271828182018281828182418201822182218211819181918211820182018131819183118231831183518441841184718501843184618461849185518501853185318521854185618511854185218561850185218511858185618531853184618531847185018501854185118471847184818421844184318421836183418301834182718281824181718191818182118141814181918121816181518121813181718111822182418251830183618391842184218471850184518451843183318381832183118281831183218381834183218421838185118391841184118441851184418441840184118371841183718341833182718251822181418191816181918211828182818281824183118271831183318311827183318291830181918271835182218221828183418311832184018311830182518191819181718241825182118251832182618341834183318311833182518311819182118111811180718051795179618041805180918141817181518271820182718251831182818241829182918341835183218371836184218411840183618361845184018461845184118451847184218401840183718461848185118511851185418501848185318551848185518491851185218491854185518501853185618571859185918571851186018521852185018531848184918501842184218421843184018331832182918301818181318171821182118251833183018301833184018391837183718331838184018431835182718321841182918361836183618351840183518351830183218391840184318481852185318581862185618581860186718641860185918651865186918591862186818581856185818581857186218581860185718561856185818561854185818621852184918511852184918361836183518281828181918171819181318151819182218201829182718261825183318261841183418271836183718331847184418401843184318401848184918491843183918431847183918441843184518491856185018481857186118621863185718601861186218481855185918591855186018611861185318541847184418431843184518421847185018471849184818591856185618601862185918631865185218501848183718281824181518191813181518251832183418461849185618581856185818631852186118641860186518581864186418601860186518671867186518621850185718601858185418451838183918391832183118281827183318381838184118411842184118471838183818341821182218111822181918261833184118441845185318321861186518641867186618721868187118681873186418741872186818731875187218681865186618691867186718651875186418661869186918671862186118621862186018551854186118581855185918521847185018481847185118391843184118351841184618421836184018411839183418441843184918511857186418631869186718721865187618741873187318671867186418561863185618571858185518631867186818711869187218681878186418701863186918631859186218661861186118551856185618591855184918501854185018471854184618491846184818421842184118411854185018561853185918601857186018481851184718411851185318521860185918641863187018691868186718701869186118701858185918521852
1848184718591852185018441846184818541854186118541861186818661859185918631854185218531848184418511847184518411829183518221808181418181811180418111800180718031804181718231815180718141801180117911785178017721772177217711781177717891799181318131826183618381836184118431849183618441842183818301825182418341835183118301824181418081805179417961782177517841781177817811782178917851786179217851775176417421739172317221711170917151726174217611778178417951799179417951780177817711773176917741782178217891796179017841784177817731780177817831799180518081805180617971788176817631741172917531751175917771783178817851782177117591753174517371727172517141707170617141705170417211712171317121697167016531633162316211614160916231641166917021723173317471751175117361731170716861680165416601670168917141732175617711783179217931796178717891779177517661757176317631763175117261701168916761681168717031723175517871806182318351842184718531858186418731861185218411821180918031791180218031829185318721889189018901869186418401819181218161823184318591869188418781868185818311811178917541745173217241726173717601791181518511881190619191939194519481958195819581960196119511941193819401918191919011891188818851892189818981897188918791881188618921900189219031888187818661853186618691868186818591861186318631867188518921903191619291925192619151908188918761869188318601875187818891890190919301936192219171887186618431821181918501870187718921900189718921893188418931894191419291960197019972019203420482053205320572054203820282016201620072015201620212022202120142000198519681956194419411940194019341943194019421939193119141888185417951751171316991685168616991733176918071839184518371835184318431853186718941912193019631962196819711956195419551954196219771982197719781962196019551946194919551953194819671975198119831978195519411928191418991898189018821877186418461832182318231836186518831899191819171912191418871873185718421836184918461864186118831873188819001915193219331951194219381934193619111903189318901880188418811893187818871880190219041917191219191920190418921874185918501847184818651871189118971898190219011897188718711861185718551864186918811893190419151918193219241918192319231931192019181911190718871873185218301823180617961785177917641762177117881803182618411858187718771882188218851891190019011891188718911876187518551862186718741886189518971913191119161917191319101898190218991899189818931882188818801888188918841884187418611857184318501847185218561859186018541838183318041800179117951785178817831780178417911811182218381847185618621867188418811885188418871889188318851885187618771886188818911888189318971896189418941892188718801878187618711863186518731885187718821882187818801878188518871891189518941886188518881888188818821876187818801871186518501834181317921770177217581766177817831790180118171839184518511862186618731871187718771878187718651864186618611861186118571860187018781870187518811887188718931896188719051891189819031895189418931893189518961890189218901890188918861887188118891888189318931896189118871887188818791888187718841875186418451837182618061785177817671747174217431739174617521758176517711775176917541748174117521748176217751778177917881795181318241827183418431849186118661867187418781877188018861885189018951892189118951900190019001898190719021900189618951895189318951895189918991895189518861889188918971886188718821882186918551830180017651725169416711654164916481655167116971722174417671777178617911803180318011798179117841774177117761782178917981807181718251836184718471864186518721881188018921886189618911898189619031897190519001906189918971904189719011908190519021904189818951886186718551842183118231819181818181824182518291831182118181802178717611748174017361740175017581772178017781783178317771782179217981798181218181832184418471854185418531861186118571862185918601860185818541859186018691869187418791887188818871900190019031894189418971896190018951893188918891886188218821868186718441840181818031791177417631763176317671767176217701771177817821794180018111825182618281841183518351829182418171813
1803180818031805180818051823182718401839185018511857185518631861187118701870186618681872187218701876187418801877188218811882187718881882188818951883187918821883188018821880187518721868185818531847183418321811180317821760175017361728172517321751176617811791179617961799179417911783178317771779177517761780178417971810181918271836184018411844184218461843184618531849185518581862185718651864187218721873186418711869187218741872186718701867186218601855184918401844184218441849185518641857186718671861185918541848184218351829181518011790178217691766175517611764175917671766177017741777178017931781178617791779177517731775177317831788179917971796180218051804181018081811181418251833184018471846185018471849184318481849184118431839184118431835183618391834184118381844184118541856186418661869187218711872187618781879187218761878187418661863186218511842183518241819179917891772176017631757175917551760176917731784179718001811182218281830181818271823181418051799178617891786179317911795180218031801180718161821182918341841184418531857186118721872187218691876188018751872188018751871187418721873187518711875187318751869187318711868187318681874187318751872187618721875187518681865185718521849184418341834183118291827182018151811180617971797180018001814181318211824182218241818181718121810180117981805181018081813181518141814180418011794178617841788178817951796180018111819182718321843185218481847185418641864186318641867186618691867185918611863186518631861185518501841183718311820181818141804180618061821182518311836183918391827183118241816181518041803179717961795180118091808180618061802179617891778177217521748174317491755175817701774177917921789179817961805180318141813181618191829183618401843184218431834183218301824181418081817182218261825183718391848185318511858186418681872186818731872187418741865186218681864186118531844183418231814179717871765175217441732173917561773178017861794179918071815180818131810180718051808180418001794179117871779177717621745175417531765177117811786180218051817181618301830183418391837184018401838183918371842184918441845184618501846185318411835183318281829182418191819182418301828183718381849185318541860186318621858185318491845184518451844184818481841183918301824181018001783177517701768176817641767177217771786179017961809181218251826182818321830183318311827182418151815181018081794178817911791178818001799180718131825182918351840184318501858186918661870187118721877188018851886188918791873186218461834182518101804179017851780176817751768177517681770176717781787179317991811181618191821181918271826182418141818181018061799179317961797180018071817182118271831184118481850185018511852184918521851185618561851185318491839183318191805178117711755175217511760176617741782179017941797179717991801180218141814182518301828182718261827183018231824181318151805180117921780178517871785177917821784179118021813181518241826182618291819182118251832183218351839184018381829182518161808180918031820181418171814181718121809180718101803180418101810181318071809181718221822183518491857185618571860185518471847184718371829182018081795178017731768177817831801181218221829184018501857185818611861186618581847183818291818181118131806180718081807180918031803180018031803181218141821183118361848186018621866186818671856184218341825180918071806180018091803180618021800179317931798178918061822183718511866187618831880187918851874187518691870188518901885189018881887187818691868186818621867186618611861185218521844184418401842184318421858186218621879186818641858184518341819180417901773176217671784179918101824184418531856186518751869187018731867185718511863185818611864186518691864185618351831181718051809180018161829183318471853185518521858185818471831183218241809180118071805181318221841184218471854185418461859186018691880188818941899189518931887188118591848182918181816181018221824183818481855186318691876187918801882187818711864186018461836183518361845186018751874188218851885187718731854184418201809179117841788178618011807182018311834184718431848184918441837183618351834183918511874187918851891
1896188818701846182518001785176817591758176117531749174817481752176517841805182918451863188218861885186918431803176117211683165316501644165916831705174217601793181318461859187018491877187318691858182917921762172517071689169717051724174517751804183318451876188219001901190519031903189518891863185418461830182318261820182618171822183318431851187818911900192219351941193819331919190918881867185018331815180517941790180118101827185218731905191419281939194019341919190618741849183418161826184518611876190319201928194919521971197319671979197419731965196119571951193819421939193919531947194819431939192719171892188518791871187718831890188718921887188918771875187218701869187318681870185718521852183718211814179818081822183018521867187718861903191619281934192619341924191218811841180617681749174217381746177818161853187818931909192819371949195419531956194719381950193219331926193019371933194419401942193619381925193219331932192819381933193619361930192319281932191219151909188618801852184518321838184418721898191519301941195019611956196819661947193119161914189118871892190019181925192419221935192019231924192419321934194519551959195219561957194119231906189318581845183618451847185318571871190019081911192419391936195219501949194019361916189518871872187618731885189619101921192819201923191718991889188518741877187118871899190419191932193719471951194419431937194819431947195519471948195319441940192919321929191819171908190718931888188818771879188518881897188919011897189118931889189318851883188718841884189719001897188718751860185218371829183218441861187418861889190019111915192119251953194219401946194119481943194719471941194019501943195419571944193719371936194119391934194619451945194519311927191519081885186218581858185218591858186518601862185418481849185218551857185318721876188318961900190419061909191019201916191619091899189218801874187918841884189418901897189618971898189619061899189619011899190619051909190219011909190519151914190219091906190418991895189618931898190218981895190519091900191319171909191319121906191018961897188918821864184018151824181318141800181118161822183618281842184518471853187318711870188118741879187818671861184918361840184318361845184718481847184918451850186118591872187118701867186818691869187518771876187218731870187418791872187418801873188018761872188218721878186218631848183418211809181118111811182218291831184818431851184718491840183018151797178717641744172017121700171817181735174717611772179718051819182718201835183018421839184718531847185618601855185418491844184118361840183518341827183118341842184718511853185618551858185718541852185518541855186418581858185318571855183918231810181418051789178117801786179517801786179317971797179017951794179117871772176717721770178517881793180118041806180018021795178917941786178217911795179517961814181418211815182018211824183418251836183118291830182518231821182418261815181918261825183118311832184118321829183718411835182718211804179617771756175217341725171417041689168016701679168116851700170417121714171717311741174717551762176517711775178717841796180418111813181518181826182218311833183818371837184018411848184918471847184818481849185118501849185318531854184518601856184918531848184718531844185018511847184718441833182518141801177417511720170916791662164816351628162616331651166116821704171717361743175517591757175717471746175717701777178818031808182518231822183018381843184018461851185318531848184818551860185418501854185318591854185718541856184918541854184918511847185318461842185118501850185018511851185018491848184318441845183018221808179217751756173817231708169916851679167716851693170617111717173617571762177917751785178918001809180718111811181518251824182818271832183518371843184318521855185318501849185018551853186018581853185318591859185418621856185518561852185518561851185418511855185518551853185718531856185118561848184918481857185118481848185418501841184618461840183918331828182918151810179217871777177117541748175717631773178317801796180818171822182618331835184218391838184518401843183918371845184318411841183818421840
1838184018401838183818421837184518431839184618411844184318431851184218461851183818451844184118431841184418401832184518431841184818411844184518531847184718491852185218591844185118641854185218561856184018561857185818581851185518511846184318381841183818381842184318371841184218441850184318471845183918421836183718371838184318341840183618381837183718341832182918291827183218341838183718411837183718361830182018241821182218151821182418311840184018481850185218591855185918651862186118631863186818691863186018691857186018541847184618411841183718291828183218261832183418361840184318451843184718461844184018411839184518491849185318521854185218461846184418521848185218511849184618461845185118491854184818501848184618441842184418411840184518391840183818431840184518361840183218361826182018131806179817951797179317881797180818081812182618271828182418301829183218331837183718361839184218451839183618381839183318381836183118251822182418241824182018171816181918141813181218201823182518191824182818341826183118291833183318351835183018361836183618281833183118301832182618261830182718291831182718281825182218271821181118091804180218071802180718091815181618211819182418221824182318171818181818121813181018111815181018111811180918091814181518151819181918241826182418281829183018281832183318351836183718331843183618361839184418441844184218451837184518411843183418291835182518321826182118211815181218111813181318201816181718181817182118231823182418201824182418271829182618311830182618211827181518201815180918051800179917961800179818091813181118151814182418211824182818231828182918241830182918251825182918241822182218161823182718251820182218201817181818171824181918211822182818261824182718311821182618221820181818171811181018051800179917951796179617961791179317891784177817791778177417671770176317671767176317731772178117871792179817991801179818031803181318101817182118221818182318311828182918311832182818341828183018321829183218321831183218251830182818271828183118291824183018271829182918311833183318291830183318341834183418271825183218281824182418191819182418141819181618111811180818011797179517941798179117981803179818001796179417961794180017931794179317911792179417931801180818051810181518181819183018191826182818341828182318271829182818311835182618261829182718271830182518281827183118221826183218311828182918251829182518241823182418151813180918111814181018071803179917881786177217751774176717581763176117701773177417791782178617921798180018091811181418191823182818321835183718391839184518451840183918411844184418381841184218431845184018401847184618471841184618451844183818451841184318461843184218401843184318401840184318421844183018351838183218341827182818251824182618241832182718341829182818201823181318101805180118081798180517981801180318181823182818251832183118351832183718401844184018401836183818401838183718371835183718371844184218431844184818441850184518531850184718441851184418401841184318311830182818251830182918301830182818281820181818141817181418131816180818081808182118121810181218111811181218071798180017981795180818131822182918251835183618411842184318411845183518431843183418291827182518191817181818241828182618311828183118281822181418131808180317981787177917781770177117771781178617821787178117751776176317571753174317491744174217521761176617691775177117621757175817531748174217351721171517201712171317111712172117141719172917371752175617591776178117761773176817651765175217381721171517031707171317111726173717331741174517441734172417151697169316941687168616831672166716631663165516541656164916561664166216661671167116811679168516881679166916531642164716471656166816821688169616961709171417191722172317221718171317101705170516991687167116571644163716281614161816131608159915961606160616001602160716141612161416321654166516941698171117191724171917001673164316081583155915401537154815581564157615971621163016501671169317111731174317501754176717801782178917801782178217751780178717981810183018261821182118121805179417891781178017731772176517551741173117221726172817361732173417351742175017561770178317851792
1794180118001802180018031794179217751761174317281720172517311727172817181721172517291720172417291734173517361726173117531765177817951808182118131848185518591866186818751874187518711880187518761879187018661872188118531837182618111780174017161698168516671669168216961712173017421755176917721781177617811798180018101823182518371845185418711890189118871858184018271812179417721752176617761794180118221840186618821883189818941899189518921896189518921878187418731883189719201929194419561955194119311916190219071893188118811874186918551850184018331823181017891778177117821783179118031808181318131812180617941783176317641760176517711785179918131834183818361858187818931906191319151925192219321925193919461958195719651955195419451939192719181917190919011891188318691863184818431835183718371835184618531868188819191956197319942013201420132007200220072011199919821959193318961878186218461829182718281834184318521853185818601869188018821886188818911904191919261937196319651979198119871967194819231896187718711863186318611859187118581859185418731895193719671981200420172023203220302028201820132006198819651930189318581835182418201818183418451875189019091926194119471944195719521948193019111903189518831881187418651881189918901891189818991895189818901882186018601847183718491873188918871887189919051915190818991882187818711871187418791874187818961891189118991909192519251939195119641978198920002016202020262035204120312017199819891976194819191894187218751877189519061923194419651973199320112025203620502049204120272009199419721953193019261922192019141910189218781874187118781888190519281947195819541937192619021874185318231827184418511876189419051928193119401944196219751992199319911989198819841986199119992000200820062015200019961981196619311897187918711873187918801891191019201915191319161908189418771875188518921910192719561985200220212035203320272017200320001996199919981996199719881982197719601926189718711824178417561740173217611803184018821908192819511975199120182027203920522046204320302015199919711949192219191919191119281955197119772000200920232040203920342033202620181994198319581948194719471965197419811994200820222030203420382020200319881954193719381941194819651977197719851972196819391918189618901887188318881893191419281950195019571956196719701981199520162014201420101977196019491952194419371942195219671989199820092013200619991993198019711969196219571952194519291908188518641848184318411840186218741891190519201920192419361933193319331936193419271926192819311937193619511957196119571954196519661963196819791977199219881997199819972003200519991991198219651951194119251917191118851855183718171800178417731783179818181851187219011922194919671983199820062012201120122011200419931986197419541933191819011883187718761891190319171938195519551958195619531944191719001875183418041789175717381732172317391754178118041828183818441859185818681879188318941907191618991901189518881873186218631871188518961929194019451967196919761969196519561940192919171917191819391948194519401939192919181889185918341815180018021784178017801765176417591765176617751792178717991808181118131822184418621868187318881891190118831879187918851894190319031906189718991895188918641848181917881763175817701790181518301827183618551865187518761864187218631874187418821886190318971888188818741864185018411829183318401849185818571877189318891900190619201923193119201919190318951875187518581845184218401845184718471832183918281819182118181806179717721753173617371757178518171842186018861900191919301926191919071891188618821881186718451814178917431705168616811696170517351763178818091817183718541865187218771883187918871886188518741877187518731869187718711885185818601862187018651867186818831888189418831888188518741864186918501851184318551861185918661880189018811853185418341811179717841782179118081815182618201813178117451716170116871697171517261736175517691786181218271852186918711863186318661862184518321823180718051815182418321847184918531858185018381827182818241811181918121818181518221843185018461866185818621861187018681857186618661863
1857185818571858185418481864186018601869186018421827178217581744172717271723173017491750176617711771177217751774176917831787179317851790179217901789179217951790180518011799177617531727170716751646162116121629164916711711174317661801181218351829182918261811179317761770175917531754176217671782181118271835184418561844184418391839182418141826178117721769176917661770176917671756174617231713169616671679170817231751177417751763175917371724171217131714172417231712169716901672166416641678169417091732174317411745174617481756175917631771179118011796179217941792178317851797180618251829183218191801174816921634160415971609164717041759179218221835184718411848184218421832182818041782176517361738173617261706168016671651164016441660167817011756177218041828184418491839182518061795178317701753175317551758177017931808183918461856184218431827182218001791177317911782180118261831183618121780173716771638159515851589161216281655170117451787180218021802180517861761172117001679168516781677168216871694170417261743175318021831185618661882189218941898189318881889189118931903189718931894188118801861184118151798180717951813181618321843186818811883188018721868184118181794176617511741174817591752174917501732170216691660164816661678171717541780182518461870186818661854182018031782176217521741175617931820186218951911190919111908189718951887187318641839181918171823181418381852186018591835180217731751174917561762178918181834184218481861187918901907191919181922191118951885186418381840183518351829183418321817179517511719168316821700172817701815183418381847183818021782177817641765177517871802181218271835186118701872189819141928192919321929191618971868184018281816182018231834187519001935194219621980198419751944191218661831177317131653160115761576160016591720178318281861187918831889188718871902190919251933193319371941194219271903187518551816177017571754176417731790181018341830181318241824184618581890190619161926192919151895185618171787175817461769179618231840185118531853185018381832183218431867187218911909191419171914193119231934193018971874185618281810181218221824181917871741169316471623162816521696174917931824182418221823181718191826182718411849184618541871188418891871185718571857186518601874189919011917189318641832180317851765177617891813182518361856186718581853183818231779175717321721171717181750177718111835183318361847185318671853187518821887190919231911189318701845183218111798178617881795179317981811182518241832183218251822180818111808180517841773175617251712171117321748178718001824183018291831185818771883186918681849183017871753173317181731177418051830186218781904190619041887186018371813180118111822183218411864187818781891189319041926192619191908191119051902188918841882188718851871187218661875186718701861184918331827181918021778175817471728173617371749174017431724169316661646163916471667170017341747176517701761175717371719171517221736176118071834187919041925194619411929191819021896187918661862185218391823181717961806181718531879189019021903188618671842183818451847185718811899191519221932194219311916188818451811177317441713171317151725173217041685164316371613158515621575160516431675173417911833186418971926192719351921190819011879188018681870185618591846182717961793180818101822184218561868188418961895191019161941193119321922190718961874185918541853184118221793173216931660164816611684173918131865189919391948194419381933191018941877185618311815180518131813181918191839185518531840183118231813180317941782178117811787179017821757172816891672167416911705172517621800182318471845184418351843185118691881189419001911191519201927192619211928192819291922190518961877184718441824182818241813180817701727169616511644163316541679171417541795182718581871188918981887189418621834180317731751173217481748175717731783179918291844184918601869187218751879187818871895190919181927193119411934193819381936193419281940193119161921191118991900189919051906192019201917192019291933191619131912190819001911190518981897189218851878187418671859184718431823182518141787177517561747173517351740176618021824
1847185518591866187818761865186318511855185618621877189018901897190218941892189118921897189418931894189518931900189918981892189718901893189218911897189118911891189418941893189618901888188718881883188618771882188718881883187918871880188218731885187418791885187418711878188318781877186718831877187918671871187018581848184118311824181118051812182418311829184018431834183818371820182318271818182418251830184018401831182518301831182818271828183618511843185018481845183418411834183818291837183718321832182818341827183318291845183218351844184318431838184118431840184018381837183518321842183818271825182818331829181918331827183318321837183618331838183618371834184218401834183418361834182618341822183618411829183718341837183218271829182518181828181718201829181918231823181418101796180317811776176717621775176717781780179117831789179217991797179317961805179818051799180318051807180318051803180617911808179918041800179817951802179917991801179418041791179817941801180318001812180617991804179517971797179918021801180117861792178817821790178017931790178917881786178317901790177917951784178917811786179017861792178017881795179417871792178517841789177917871792179017921796179517911798179417971793178217981785179017981792179817941800179018001793180117971805180818021799178618051806180318241800179818051797180118051809180818111800179818081808180818041806180318151802179817991800179717981796179517931793179117941793179717951787178717911790179017851793178717841785178917831779177817701768175617461746175017521748174617441747174017281727172617251711172517211726174317501752176317571762176417681777178017791774178617831791178317811783179017861780178317821785177417811786178017831782178817891781177617841782177617831782178617861791178517871778177817821775176917741775176917671770176917751773177317741774177217731772177617721767176317711765176617601757175917521755175517521745173717191721171016981687168516691673166916801688170717121720173217421742174417561754176017551765176817711769177017731769177617751773177517691769177117671774177217681773177717711767177217721774177517711775177717761771177017691765176517691767176517641771176217651758176417701762176617591768177017711765176817611765176917731761176817671767176517611766176517751768176917541757175917491746174817461739173317401736174117471755175417581749176217571749175317591759176017801774177417661766177117691777177717721778178917831773177517751777178517791783178517821781178417871787178917861794179417901802179717931797179017961800179117921802179917981802179818041802179517961803179918091800180217991804180318051801180918131804181918161813181018111817181018171809181618191818181618151821181718131813181218201817181418211821182018201819182418271829182418321829182918281843183418351833183418291837183918361835183818441844184718431843183818401842184218421852185318571849185318561858185918611857185918601860185818681863186418661868186518701872186918731869187918761876187618781870188318801879188418951894188718811886188018781871187718681871187018691869187418751888188218951897190319121900190819061905190719151916191319191911191019101904190519051911190019011897190619021909190819161917192219251924192419201928188619291927192819261927193219321934193919401924193219261935193519381935192819321942193519321936193819301935193319291928193419381932192319351936193219281933192619311930192219271934192719281927192419261930193019231924192919251928192119311919192919261930192419221927192519281920192019361927192219251922191819291918192319231932192519251931192719261923192319261930192619221918192019191929192519231916192619251930192419251922192319301924192519191921192019171917192219151920191419241919192219261928192419351927192219301921193119271929193019271935192819301933192819351929193319311941193419301939193219421934193919401931193519341930194319341937193519291934194319381942193919441939193719371945193719361944194019371939192919421944194219361945193419361940193619321939193519371939194519391939193819411938193419321934193319301932193519271931193219331928193019311928192519211921
1927192219211924192019271927192919341933193419381940194019331936193819341935193119221930192819301925193619341931192819291929192519311932192319261935193019241931192319301922192919231924191919251921190219321922192419161922191419171920191619171916191319131917190919131906190819131911191519151913191419201904190819091910191719081907191819121906191219131904190719091914191019061907190719061915190919031907190819111903191019051906189719051903190619021901189718971901189518981900189918951893190118961898189018971897189618941903189519001897190018921902188918971892189318941894188718911900189318911887189018911884188918841893188818851884188618861885188518891890188618761885188218901884187918831885188618801887187718781887188218791885188418831881188518801885187718821884188018801876187318811872187518741872187518681877187618681876188118761872187118731874186618691876187518741873186518681868186618621865186318721865187018701870186818711869186518731863186618691862185618641859187018661864185718621867186718711868187318641867187218661863186018611862186518621860185818681863186618621860186218651857185618551866186418621857185718621853185618561856186018501853185318481851185118511849184618501853185518521856185118541851185718511851186218501856186018551850184818551853184918501852184818501844185418501858185718531854185218531860185718571857185618561853184818521850185318571842185618441853184718541847185118501850185418511857185218511852185118511855185018491851184918531846184518501846185018441847184718511841184418431846184618451845183418411834184418461848184418391843184118401843184618391843183818381839184318371842183518341840183118321838183418391837183718351832183618321834183218271840182718361831184018381837184118351835183918371837183918361839183518331832183618361837183518371836183818411836183218341842184118381844184118401835184118361837183618341841183618351831184018361834184118321828183418311838182918271832182918251830183118261832183318301836182618331833184218351837185018451845184018421844183118491847184018331839184018421844183818341846183618371829183018321832183218281824182818261829182218171824182218281827183118341837183918381841184618471846184318501854184918591853185418571858185618611854185518531848184418371831182618221814181218161809179817981789179617941797180118041800180318121807180718051799180718011811180918151807181018211822181418111822181618191817182618261826182418251825182918251834183318321821182718261824181318231817181618201819181518141817180718051795178717911788177517711775177017701769176917671767175417571766176217691769177217691779176817771778177317921785178017731778177317731767176717591751176817621758176417641768176617691778177917831780177817831789177717781780177817751781177017781772176917611750175417461747173017211721172317231713172117181716171917111719171617141714171717211713171017041703169717061703170117151721171717191719170517241736173317391735174617451745174217401745174717401747174417361735174117421736174617421736174017431742174017431733173417351736174117311729172717411735173717381738173917301742172717281728172317241725172817331725172317241730173017251728171617151709171517011712169916961691169616921677168816841685169417011708170317071715172117201718172317251720171717261718172717381740173517371745175317541758175917551756174917601762176017701761176417521750174717391731173117291725172417251719171617141718172617291740173217301734174017371738174217421747173117321743174317491751175017541761176717631762177117691771176117611761177117651777176717751786177917731770177517661779177517631767176417571762175617571758175517541752173517411728172917211714170917051693169016991714172917381730174817451759175717611770176317761772177917731777177517791786179317931794178317891793180218011807180218081815180118111812180118051799180217891797179117931783178917841785178817961794179318081805180018011794178717891799180117821793178217901784178117781779177417781777176617601756174117401721171517051672167116631685165716481646165416561678168316921698170917041720172617231720172617251732
1732172817441736173217371742174817461741174317341740173117321722171417051703167716801671166616641653165016411646162816351630162516161627162116191623162516211620162316281627163316451651165616511653163516261618160615961573158215671572158015781592159116081605160116041600161316011607159915991611160016181616163316391654165316641665166116651651164816401625161816041600158615751564155015431540153915421540154915501555154915621560156915701574157915871593158815881596159215981589159315861580157415641566157015761574156915761575157115851580159015881596158815961594159115841596157715821579157215831589158015861595159015921602159916001609160315981604161516011596158915851597159115891595158815811587158015741579158215791579156015711573157915941590159815991601160616191605160616001601160315921594160616041606162316311655164516611664167216641672167516741680167816831677168616771686166916861678167616761675168116881677169116921683170717181724172517321742174217441744174917451743173917361736173117291721171617091703169716931690168816961699170717131709171117061719172117131720171517151713171617211721173417301742174217421750174817421742174517481744174417411746175517491750174517421748174117391738175217431755176317561762177517831782178417891789179318001813181118131816181918161812182618141809182118181833181818141828181518121816181918151820182018291825182618321835183718421837183318321831183618251823181717921781176917481733172317201721173517421764178117891806182118191832184218381844183918491852185718631862186818611863187418681864186218771865186618651870187618741869187518701863187218731879188618771877187918811884188618871892190018991891189318921887188618951889188418811885188518821873187618761876187818731880186718751874188118781875187718781881187818771866186318641862184618381822181618071809180918171812181318331834183818521861186818721871187918801880189518891892190019021900189319031904190419131917191819191921192319221933192119311937193419211930192819371937193719381941193919441935194219291941193719441943194519361927193019291935193519301931193319401928193719331937193119281930194019331940193919321935193619291931193619301933192719301932193219321931193219331939193219301925191719171919190719091901189819011906191519181921191719181916192519291929193519331939194719471944195119561958195119551954195919671958196119661959197119631971196619551957196119641964196619551965197319761976198119781979198819771978198219811986197819901987199119921981198919951990199519872000200220001995200520072003199920032003200120132001201520072005201020122005200820092001200319982005201220072008201320132011201420122015201620182013201120092010201820132010201920052010201820162019202020132022202220202016202020312031202120232016201520031991199519871982198119781988199719982006201320212022203120372045204320492045205020552058204620602062205720632065205920642055206420662071206820662073207620672068207320732073207520772072207320722076206820682067206820712067207120682075206920802076207020752065206720752064207220712076206420612061207320602064206520672066206220532058206320512063206420572050205520482044204220402039203520402041203120332042204520402048204220412048204620472046204320432054205420572056205620482050205420512054205020402045204320472043204520402043204820362050204420552040204820492041204520482041204420432036204420402046204520412053204820502060205220522049205520572057204320532051205920622048205320522054204920452048204820432045204020372031202920302025202820332023202520252028203120332034203120362039203620442038204820412044204220402044203920452037203820372037204120332034203020342032203320382036203220392035203520362041204520392038203620432037203920382039204220442045203620382040204520402041204220392041202920322035204120312029202820282028201320092016200720072000200419941997199519972003200019972006200720142009200220112013201020252015202620232021202720232026202120212024202920222021202120252026202020252022201320202019201620242019202320142020202020212010201420122012201720092013201220112013200720062005201120022007200720072004
2003200920031996200719992003199620021995200219992001199619931998197719911993198319821981197719721972197519761971197019731969198019741966197319741969197019691967196919741972197219681971197319691976198119701980197719801971197719781980198419771977197919871980198019801984198219781985197519771981198019871982198419751979197819821978198019771979197719711973197019761966196919721971196719711966196619641959195619681956196219601958195419471948194819421939194619481942194919501958195519521952195119501956194619531952195719591961196419591958196119591955195319641959196719591958195219571952195119621956195519541954195919551953194419461957195419551950195319511950195319421954194619471950194919451956194819441946194719461941193519381941193719351934193519341933193519331932193119271931193419291922192719201933192719211929191619291922192419141917191919181921191519301919191919241923192119291923192619231915192419151916191819171918192219171914191819151916192119151923192219221920192119211923192419201922192019171919191219121913191719221914191619131908190919111909190919101910190019111910191019171913191119101910191619091912191719101916191119121911190819151903191119081909190819091904190219071904190719021900189718921887189118881885188518791878187818791873187318831877187718801862188318811885188618841889188118881883188918871893189018861896189218891898188918951894189218901901189918991897190019001895189418921891189318921895189618891892189018971892189518971892188918951893188218901889189018861889189118841885188418841882188518801877187718791881187118741871186818661865186218671866186818701876187018671870187118721883187918801876187718751873187518721878187318781877187118741882187818831874187518811877187818821886187918831878188418761876187818711872187818771879187618731880187418701870187518801874187318711870187018741871187318681866186918661865186718691870186618721873186918651865187018631858186018501848184918511851184818471856185618481851185618571851185618531861186118611870185718651862185718601860186218531867185718571863186218561859186018611859186518601861186218591863186318591861186318611867185418531863186018561845184918441841184518351843184218441844184618481850184818461842184318391835183418311831182818291831183718341836183618331840184018371835183418391840183818391841184118451839184618481844184818521855185818651864186418681871187918831887189418951903191019041915192119331924192119231922192819251918192719251931193419321936193819351936192219241918190518961882187718731863186018451842184018311828182518181811180817991790178517841777178617811777177417651772176817641765176217561760176317551747174017431745175217571765177017681770177117691777178617761779177017611763175917501749174417481751175717611771177317721773178717841787179417951795180018011799179918011804180618061811182018141816181918131807180918051796179117861786178317691774177617741780176917671759176317721767177317701773177017631742175517401733172617171724171817171709170517131709171517201732173317491760176917631774177517761776177717751777177517771786178317941790178718021790179317911803180117931785178617831777178417681766176517541752175417521757176417621763176417681764176217601750175117451735173117271719171617091699169416861681167816751664166916631663166716691681168016841683168816871700169216951691168816911685167816921695170817211719171917291728172217191719171317201705171117151710172717091721172217251730173017261735173617381739173617381740173817371737173817281734171617151712170616971705169616831684167916681677167716731666167116641666167116651672168016831679168916771682168516711662166816561648164316381640164416461656165816521642165016541660166216691675167216781683168916891673168016851684168016851687168616851690170317031703170517061701170117111707170316951693167716781668166616691658166316591660165916561647163816281630162716291618161916111618160516051605161316121623162216311632165116631653165316631665166916721672166916761666167216681662165216441632160916001577156815661570158015811597160016251616164216391652166316671669167316821682
1675168816831681168516861680168016711669165916591656164916551660167216681676167016751668167716801682169216971695169516921696169716841677166716751657165516471645164516401654164316371635163716361637165016541664166516611658166916561654165416521650164816471650166116681664167016751673168516881694170017001697170417051707170817191715171617051706170217101705170317121713171617141721171317121701169816891690168816981698171717091711171517161714171817151730173817451741174517551756175517631761176517771774176617651761176817671766176417611765177017591762175917571768175717551763177817771777179017851795179617911799180218041801180818091811180718131809181118121812181918211821182218231818181718081816182318151812181718041816180618111811180918001795179817971786179117811774177017631774178717911801180918141822183018311828182518261835182018141811182118161819181818301823182918341832182318431845185418541861186518651866187618791875188318761872186818771873187618801885188218891895188918821890189618921895189519011888190119011894189218911897190019031910190619051905191119091907190319171913191819081913192019141907191519191913191919191924191519171917191919151913191119121914192119161915191719221928192219231929192919401930193519331936194219381925192919201919191719111915191919131899191319071904190919141924192719241921193219381937193419401936193519361948194419411947194419481955195319591959195819591956195419571961196019651958196119601954195619591960196219641958196819611963196019611959197419561960196019661965195619621960195819661964196819601966196719561962196819661957196219621958196019541959195519531953195019431941193619321938193619291929193319321926193919441939194419371932193619421941194119381946194919461946194119511946194719531950196219601947194719591956195319571957195419601961195919561956195919611953195119501951195519501954196119461955195419471960194619471949194319461948195019551951195319421947194919501947194519451946193819451946195319401949194819461941193719481940193919371943193819311937192819231929191719171912191819161922191819131919192119301914191419201923191919191927192619231926192619261924192519291918192919311929192919311930193819341924191919271929192819281926192419241933193119361939193219361935193419371933193219391931192619351934193719311936193219331926194119281925193019361932193319361936192719261924191519261923191319261921192819261915191619201911190719051898189018811882188018831880187718811886189419011901190719051913191119161924192719251921191819181921192019121917191019041899191119131913191119231915192219211928191919221927193119271923193119291931192419241924192219231929192219231928192019271934192719251930192519181917192219151914192319141915191319181916191419101925191719211922191519161912190619011900188618871876186818611862185418501856186018661876188318931896188018921892189118841882188518761877186418711868187718811885188818841896190318971901190319101900190519111905190919031903191219051902190619131902190319031912189919051904190119071904189119001903189618961895189518941895190318921893189418981900189518861898189318921892188518851887188618871885188418871883188618881879187218701866186518641861185218521851184318461844184418371839184518451851185318541858185318501856185318481850184518411845184418481851185718541867186218651868187118701875187218711874186818721871187118671861185318631864186518661866186518641866186418611864186318631857185718571862186218541856186318471851185118531851184818481845184118421837183518351832182718251821182718261824183218221823182218211819182218261827181818151819181418221821181418071808180318001801180518081809181118111820182718241827182518191825182418281828183118321828183118301833184118451844184818481845184618501847184018431843183918391842184018371834183518361830183718301821182118271822181618131816181718201823182418221829182818211827182818371838183318261829183718231827182518241827181618131806180918121812181318091812182218211822181818211826182618301829183318351827182118221826182118331825182418251827182018131815181518131812181218071806181218121809
1806181418201817182018241827183018291836183618381839183718381838183818341835181918261821182218211822181918271818181318151814181218141829183218171834183818301824182718231817181418131805179717891787177717761761175517451734173417341741172917391744174417471756176417831780178917951801180417981805180517981801179317881784177517621754174517381731173717401751174817591761176017751774177917791787179117811783177717731775176617651753174817431731172817171702170316951694169516901695170717121719173417481751175917571752175017341724171616921679166616511636163116271641165416721686169717061721173617421754177117681769177217781784176917791780177517631759176217621764175917571754175017461729172417091711170016831673167016691660165916581650165616461653165216611669167316641678168816851695169717061706169616981696169416921694167316641646162816181619162016281635163316441663166416691675167616951706171817351743175217651769176717661774177417731772177217691762175417581751174617401739174617451747175317551758176317701768176917701770177317701765176117571745174117311736173417441752176317721780178218001799180117961793179017951789178017681759174817391743174217421743175017621763177217691760175817611754173417211716170917061703169816981697170716991697170016991698169716971694169417041717172217321747173917361734172817241718172117181721171517151716172117241728173317321735174817371740173817461743175417551764176317701791178417951800180718131815181618231826182618301818182118251823182118191821182718141817179917811781176917501743174117431732173117301740175217491761176617641757176017621766176717571752175117531744175017461762176217641757176017501750174517411740173617311724171517061700169717121699170516991699171017121734175117661781179818191826182518211821182218221802180217991806181018191831184318601859186718641861185718481849184018451842185218541857185318621855185618531840183518211808180017911790178417841772177717781779176417641750173117341708170417041711172617361743176417791805180518231836183618421846185218561853184218321826184618441848184718591857185818571848185918611863186918651854185218331818180318021793179817851789179918171824183318511868188618891908190619071904189818871873185618461847181617911774174717291711169716991706172117361773180318241831184018521866188318911892190319011897188118761885187318801885188818951909191919231930193019321939193119371932192719221918192118991888187118551843183918211812179617951796180218011824183418481851186018711877187318631852185018421825179317721751174117301749175317671785180318371851187018881911193119491961197019741976196719621947193319171901188618731860185218451842185118591883189219061919192719281935194319351928192019031885188618611856184818561846186518641870185618541847185518471844184018421859185718791881189118931899190419091898189618971901191519131921193819411951195719561954194619411919192719161901188818711866187118681877187118541848184118321817180618061801180218101811182518451853187318851895189618821885188418831884186318591837182918341842185118601866188118931911193319541983198919801989198919801982198119701961193919291914189818821865185118461839185018601858185918451849184818531850184918441858187118771887188618821873187718681866186418611873188918981922192919241929192819221909189718971867186818501826182718341829184018411849185418691879188218701864185618441835184318371849185818821884190519121919192019141906188818771866184718381808178917731779178418021829183718461857185418471819179717621725170716641641163116331654167617071731175617841800182818371842184118401831183318451847185718691853184818491847182818331831183018371842186918761875187318711871186818621823181017801769175817671789180518291861188718981902191319151916192419221908191418971878185318451804176617251714168916751701171717331768179318141817182418211825182018321832182118361851185818531852185018451830182818221819182018211828183218451846184618661875186318671871187518681876186518711879187018811883187518861883188718831877185518491822181517861762177517631773178317791773177817861788176717481736
1754176618021826185118561878189719031904191019011885187218371821179417741769178218051820184018621865188518941898190919131914191519191923191919001899190518761863185018261811180017911798181118291829183918431821182618181811181218131825183218241832183518371838182918091811181318121803181318281833182118131788177517701770176517621781179718271841183918391834182118051796178617951805179618071805182318191836184818581854185818661866186818721878185818371823180617961776177517641778179518001817182018321833183918381848184918531851186118551838183618441853184518671866187618741874187918821873187618741857184218301812180117941778176617571752174817461751175017631779177017901789178417941797180118061810181418191832184018531851185418591836183318241817181918021814182418311832183118371824181918021793178317761779178617821796179718011801180818071809181618151827183218301843184618501839184618321824181418141812180017961794180218181818183418391844185318601864186018661868186518661856185418441825181117951779176717821780179118051815182718281842185618651878186718681882187518741884187918781887187718851868186318651851184318351819181017881776178317811791177917801774177417611746173517101699169416961707172817501775179518171832184618471849183518321821181317961790179318061802180217961804180118111827183518521871188118921891191219091915191719101905190719051911191119191914191819081907189818851888187818631851185418521853184918421851185318621868186918791875186718731867187318631835182317851755172316941674166116741689171717441765178818011818182918351842184218471852183718401827182718261835183518451853186118681878188218831896190118961893189819101909192219191922193019271942193719341938193719361941194119471941194319371933192519261909189918911879187418561845183518221820181318231822182818361841183818351815181017911777176117501746174517381762176717711780177817751772175517601762175917711778179318001828183318611863187918831883188218891891189418971907190919121916192319291929193719361944195219611955195219471946193619351942193119371931192819291930191919211911189418801872187118591847185018531853184518381821182318121816181418141820182218081803178717691758176017761790178618011816181118141821181718251826181618421841182918341841185018591872187318871900191119161926192919271938195619541949194919501953195019411945195119541947193919331919190818911884187218711854184718431844184518561857185818621872187818771883187218711857185418431829182918231835183718241815180917971796178217761769176417671776178518021813183018431847186118741892189219071897190219161925191819131910191619161918192019301935194019371938194019401935193319241925192119281923191319181910191019141905190318931885188018691869188318731880187318771872186118471835182018021797179917941811179617991804182018251826182518241819180517961785177217651760175717721779179518221823183118361848185218611873186918741876186418651858185018651862185818661852185718541854184318331825180317911776177917751783179618051842184618591880188118991899190619011910190419021895188218691848183317991783177617571756174617381742173817461762176917651763174917331704170617081711172017391744176317681764178017811769176117641759176617831791179618111822183718511861185618621868185418551857186218621852185818571849183718381835182618271820182118191825182718281835184918611879187318621853184518291812179817851771176117541751173417331723171016891684169417031718173417421734173417181710169416721650162216191613164716811708174417671793180618241841184718481839184018371829182718291845184918571861186918771877187918771894189018991908191519171925192819361929192119261922191719191917192519081899191018981860184518221792176517291692165216271623163316421656167116821699171817351759177217751769176317621750175017561757176117651760176017441736173317221711169116621639161215891562156015621588162416521693172517491778180718251845186518851904191419231925194319431959195119551949195119471954194619461941194319391931194419321925191719071906189718971888187918661841181017791759173317201707169616801679168316801706171617291734
1752176117811797180718301844185118491840184618441866186518671871187418651879187618841876188318731882188618731869187518691869188018871901190319171919191719301931192319261923191919241925193519331938192319131892188518751854184018311812180317931799178917961805181318081811182018211843184418501847185418471849184318311825182418201806180017911792178617971825183218421856187518911897189719011901190719211931194019511968197019811985197719791979197519731977198119831973197619681968196419621953195319521949194519411942194419291943194019491946195019461942194719391935193119221914190318981883187618621841181717951773176017481740175317631774179918151829184418541874188218881879190118991901190319051904191319121905191119051895188518801870185918581862184418561851185018631872188118901891189718991909191219141918192819211927192119221924193319291920192719311931192419261927192519271929192919311927192919251925191519231909191119131908190619071897189818951892188918711864184418331839183218261838184518481860186418681881188818851889189718871895188618781870186118501840182218101796178617801793180918171829183618591871187218791888189118901902189919051906191119131913191019151917191319111913191319141907191019201924191819171916191619111911190819101916190319011907190619031904190319011902190119061900190019081908189819011900190018941892188918941892188918811885187718871891188318751878188318761883188018761876187518651858183918321821181118061804181218191831184118501859186618771872188418831883188318931895189018931899190218971895190119101904190419101909191519071912191619201915192319161919191719131912190619161912191919151915191719191914191519131913191819191917191519181920192219121918191319181917190819221914191318991913191119091912191119161913191719161911191719161919192419111920191719121910191319061909191019101910191319031909190319031894188618961892189318941897189818881896189218951897189919061896190119041910190319051906191719171906191419111919191519111922190919091904190419081909191119091914191719161911191819251906191319151905190519131910191119061914191119091906191019121905190319031912190519061907190319041907190319021905190219001900189118931899189018941896189418961898189718891896189118801889188518741866187118711871187718851897189518961899190418991900190019081907190919121908191619131905190919061902190219101908190619001905190519061908190919041909190419131908190619051909190919071910191319051910190919021910190119061905190819061908190118991897189018901883188918801881188118771876187518651869186418731866187818801878187718771877188418841884188318871884188818811877188318851890188518831886188718861888188618831885188918791877187718781879188418851887189018931897189518951903189318931888188218851888188318851879188818791884188118791884188118861882189018821880188318771888188018851884188318851895188118831885188218851883188818811882187718831884188918801880188118821879188118831884187718721879187218751880188018791877188618851880188218821883188118831882188018861881188118861883188518891883188018851880188718881874188618741875187218681870185418571849184818421832184118321834183818411844184518441857185218541854186218611862186718661861186318631860186318491854185918501847185118511856186218631863185818671870186718641868187518691869187018661870187418671875187518691876187018741871187618681870187118671869186618671865186918651867186818691864185918541861186518561858185318511849185218511848184718451845183918431848184318471850184518351837183718321837182718251823182118081807180218111812181618221817183218331831184018441840184618421847184718561852184718561848184718561849185318481845184518451849184518461844184218421848184418461842183918361844183618371838184218431839183718381841183818251828183218301834182918221827182418211825181818161821181518161812181318071805180518051804180217881784177717681764176117571743174917571766177317711773177717801775177117751762176617741769177817731781178918031804181418161819181518191828182918211825183018221826181818241825182618261821182718261821182018241826182618301826182418211829182718271828
1824182418261817181818201824182318231818181818141817181718161819180818121809180017961793179617941792179617851787178517951792178317931789178817811783178717871788177317701779176617651757175717471739175117391737173517341734173517371741174717431746176017641770177017711771177317801781178417821787178717851795178717891788179117821782178217771782177217711775177717851788177717871783178317831777178017841782178617821783177717821784177617831773178017811779177817751778177517771778176517691763176217581758175717531759176717641771176717731776177717741756175317421746173317251720171517131727172617251728173517391741174917571758176017711772177217771775178217841789179117841794178517891786178417911784179117851782178317831789179217921790179217911794178917941801179717941792180017951796179717881791179417901796179017811779178217731767176917631761175317531749174417441743173917391740174417401754174917621763175517591766177017791773177817811785178617911789179117881796178517881791178617831786178317891792178717881790179117841789178817891785178917931791178817961793178417871783179217851781178817881784178617871782178617871788178517811786178417801787178317851782178217851783178117821778177217701778176617591751175317541749174917511757176517641769177617671778177417721776177817731772177317711771177217711773176617681777177917751778177317691770176817601755176117551753176317621772177317751779178117821779178217861785178617841789178917891787179317881790179017871788179117941791178817911790179317901787178317851783178417811778178317731782177217721770177117801774177717931785178117811785177817751781177417781774176917701768176617621757175317601761176317631762175717561763176117641761176517721777178417951797179818001797180918051805180218001807179918011803179918041802180418041806181118031805181118131815181218151819181718181814182018211819181618141820181818141819181818191813181718141815182118171818181718181820181218171824181718201818182018091816181318161813181318141815181218141815181818141813181318151808180718031797180017951794179817961798179918051803180218021798179318021797179918021797180517991808180518041807180718161816181418111813181418151820181918221820182118231815182318231823181918261831183018291820183018261828182118281822182718501825182118231822183318261828182418261825182818291825182218241817181318171814182118141810181118081810180818111809181318081811181518161814181918131811180918101799180118041801179717901792179717941798180118051812182418241825183018261832183018321832182918261827182518271820181918201816182118201825182118291829183418411837183818401839184018411844183818411844183518321842184318411841184118441839184418411839184118401843184018411843184118431827184018431841184318441839183918391839183918371835182518241818181518101809181318081810181718161819182418251821183218271830183418321830182718261827182318211813181418161816181818191823182518301840184218381846184418431844184918451847184218411836183918371840183818351837183518361837183918381839183818321840184218341834183718351837183918381841184118401836183818391843183618351835183118251836183518331837183718421835183618381839183918381841183718371835183418421841183618371835183318241825182218151816182018151812181418161819181818211827182818231830183518341838183318361835184118381842184618491850185318461848184818471843184518401843184618471854185418481847185018501846184818461845184818431845184818491849184818431848184018471850184818401846184918411844184218441840184518381838184418461843184718441849185118421849185018491850184518421844184118411840184318371841183318371845183618401833183118291826182918231821182518291833183518371838184318441847184318501842184018401843184118401841183718431839183918411842184318441845184718471853185018521849184618511849184818491856185418521851184418511852185118491850185018481854185118491847185518551855185118521857185418501852185518551854185118551851185518531847185818551858185218471852184918531845184418491847185018431844184418451842184118371838183518341831183018351835183518331838184118381841183418411839183818381833
1827183418311834182918361830184518431845184418501846185318481853185518521851184818541847185218551856185318531851185318571858186118621858185918531856184818541855185518561853185518581842185718591862185618561859186218571853185918541850183018451855185218481841185918451852184818451848184718491849185118471841184218471854185118261855185118651856185118481854184918451855183118541853184918551855185118561858185918501848185218511853184318421846184418451851184718471843184518481842184518491848184618521847185018591850186318541855185818591862186418591861185618651859186018621861186318661864186318671867186018611859185618631854186018501858185918581860185518661856185418581854182718541852185318491823184718441851184718561833186018561860186518601866186618641870187018711857186918731863186318611864186318581854185318521860185718611848185618581858185118571852186118621857185818601861186018541856186518611866186418631867186718711867186718741871187118601867186818671872187018711867187118731873187218771873187418731871187218731871187518751874187018661867186818671863186318621857185518561853185618541855186018541861186018581864187118671864186518651864187118741866187218721874187718771875187618791876187718821881188118821877187218741875187618691871187118741874187618751880187818831880188018821882188418841878187918771876188018741876187518801877187718731878187718771873187818791882187818791873187218701865185818611863186118611867187218731868186618691867186518751861185918481849185318461845185318551851185918551856185718561857186518611860186118651868186618711869187018751869187318691872187018731874187518741876187418761875187018751874186918731874187518771883187218821878188018761876187618811881187818711878187718781875187718771879187618721877187118771874187218801872187518761869187618681869187018681873187018731867186518721873186918721865186618651872186918691865186918651862186318691859186018661867186318681868186818651863187318671868186218641861186718641870187018671866187018731871186918661870186718741874187418731869187318721870188018801877187618741874186918671872187118721871187418751869187618751872187618731873187718741875187018701870187418691872186718731871187318711872187918761868187118701870186718671868187118721872186418671866186618641861185618561850185618551851186118581862186218671871187118691871187318691876186818731867185818601858185818531862186018621868186918691870186218641871186918701873185918671873187118721869187518711849186918691865187818721843187118701864186818691874186918741870187018761874187118661875187418721875187518771874187418681872187118721867187418681871186818631859182618631860185818481833186518571861185018541856186118621858186118681857185418571858186218601863185918531857185418571835186318631861186318541855185918551855186318601862186618631866186718651864186318421838186418621864185418631863186118651869186318651863187418661870186618681875187318771875187218711868187018621837186218661864186618601866186018741865186518621865186018581856185518541853185418491845184618471825184118381851182218461842185218431841184118401839184018401834183218261831182718291832183618381849185018551856185318651862186618441869187418661862186318631870185818661865185518581859187018631860187018651861185818591857185618591857186018611860185918601867186318691865187118701868187118721874187518691869186918641865186718651871186918641868186218621869185718671863186418681862186318641861187118651870186518701868186918691869187018701868186918641862186718691865186218611855185618641854185318561860185918641860186218521855185418521851184718501843185018521850184918561867186618661851187018681865186818711871187418651876187318431877187018761875187018751865187218741872186718671874187318751846187618741875188118691875187818781875186718741867187018671868186618691863186918611858186318671868186718671864186318581856185418561856185218511843184218461837184618431847185018481855185418561856185918591859186518631864185718611865186718721868186918661865185918681862186018631862186918641868186618701868186918651869186818751872187318691873
