1863185518521857185218481850185218561848185318571856186018601865186618611869186518661864186218561853185718561856185918551856186018591860186918631865186718771876186718691875186918731864187218651868187518651875187218671872186918731875187418851878187118721869186118651858186518671865187118681867187618781880188018791883187818791879187918721877187818761875187718851880188618861881187718821885189018871887187918861880186718701878187418721871187518711878187618771881188018901877187918801883187518701875186518681864187118681864187418651871187318711876186818701868186718661859186318491854185518531847184618581860186118591863186118671859187018691871186818611862186018621866185918641857186318671864186918691880188018781882187918791884187718751873186318691872186718721864187318741872187918731878188318811879188618761884187818741870187018721870187318661871187018691879188218821885188018721877187318751869186018521850185118501847184818531845185618551859186718651872186318611863186218651861185018581847185318501849186118611857186218651857185918641860186718551861186118571852185218551855185818541861185918651871186818701879187518831874187618731882187818711872186818741873186118741874186418731874187918771883188118731874187818751869186518711856185518471849183918431849185318581858185518631859186118701857186818521854186418501854184518511844184418541852186118601861186618671863186918711877187618711873187418781875187818851892188719001897190419051902190619111913191719151909191019111917191019121913191219171921192019171924192819231938192619331933192919251932191919231928192219241922192619281933194819691986200720302037203820402040203420272019201320162008201020112006201820352062210721772239228122962296228422772266224822442227221722042198218921872196221622662356249026372728275527522733271226842655263826082594257025472538252725322582271530923950400440244035402939713894380137133631354634813407333932823227320732643584400840304035403140383839325927762317186314230970054001360002000700010001000500060423290739053985391931592559196714020813026800010002000100000008000400080006000000010779355039343458276221311494086502680001000100010000000000010001000000050003000102451593224819011203059400020008000600000004000200000001000300080001000100010008014208361438119006040002000100010001000900080000000000080001000900010005000900050001033406500496000100000001000500090004000000010002000900010000000900030008000800030388093909360450000100040000000000060000000400050008000100030009000800060002027614783837395933162689212415580984044900020006000100090000000100000001000400063196392039864017403340152821197011570339000100060001000700060001000600091029380939474005402740334034403840353174172904920003000100010009000400060001000100001962372039533999402440322754120900040002000600040000000100080008000000010001000000010000000618022234069300030003000100010002000400000001000100080001000100090009000000000000000800000008000100010007000000080000000000010000000000090001000200080000022833613930399740144029246212540005000200060001000000030000000900010000000025433871398140154026403640354040404221150513000200010001000100060005000200002133378339644003402540324039404240384038404140402247035900030007000500002259371639594008402840384035403240424042404040454040404240394046403540324039404040344033403640354040403540434038404440354044403540364039403340414048404140394037404140474043403940374043403640364042404340464043404740404033404640394036055900040001000200002796390539854021402540364040403913300005000100010008000100000006000600000004000100030004000000040006000000020000000000010004000200040000000000000005000500050009000000060001000000000000000600000000000200040000000000010000000400010000000500000000000500060000000300060000000500090000000000050000000000000000000000020000000000000008000100000001000200060000000300000002000400000001000400000000000200010006000700000003000000000006000200040000000100000007000000030001000600020000000000040000000400000004000000000000000000000000000700040001000000000008000000000000000400010000000000050000
0009000000040000000000000009000000020000000000000000000200030000000000000007000000000000000200030002000000000005000000000002000100000000000100060000000000020000000000000003000000000000000000000000000000050004000000000000000200000000000700010004000600060008011501530175020902420281031203610408045605060562061906680726078208440906097410321101115512161302136114301506158416701741182519152007209121892280236824532556264027202821288629903078317232523346343035233619370837923881398540274034403440414041403440444039403440374033404740384037404040564041403640394037403640364031403240274038403440404042403740254037404140434036403940424040401340414029403140384036402640374026403740354036402040354024403540314035404640314027403040364039404340434033404240424036403440404030403440384035404140374041404540334027403140414044403740384036403440414033404240404036403740434037403740354043404740354038403740334042403740394037403940314037403340464031404640374039403640394030404340384035404540364036404840254036404540374035403140264035403340404045404540374035403540434044404240394040404040444041404340374031404440384037404240454047404140314034404140384045404140434037403740344039403240374041403740414029403840384030404840414046403940334038403940314043403540404040403240424034403940394042403440354042404040384047404440344029403640374035403340444034404040424041404640404043403240464037404340314043403640314034403540474033403940354045403040364042404140344041403440414035403640394043403240364043404340374040403840424041404040314034404640314033403640374041403740454037404140394046403440384036404040454043403540354036403240454035403340364037403940434039402940424041403040354039404840434033404340324037404340424032404340454042404040474038403840394031403240354029403440344035403340464039403640314038403940424043404840394035403240434041405140374038404440394039402940364043404340334036403440364048404040414039404440354033402740354034403340464034403640444039403740394031402940424037404440344043404440454042404840474045403540404036404240414040403440294041403940454048404040314043403940374038404640374035404440384035404640384039403040404042404040374035403940354045404440384033403640334045402940474037404040394046404040414036403140394035403540474034404440474042404540314034403540314040403340434031404740354044402740394040403940404038404240384037404140394040404140424048404540454042404440334041404540374035404040354037403740454039404340354038404540434039403640474038404040344031404440394036403540424040403540334042404340474041403940364041404140444037403840434039404040374037404740434036404340404033404440414048403440434033403940424039403840474037404140424049403140394042404140364041404140294035403440384039403640374033403540434039403440384036404140394035403740334045403740374035403140394043403840374033404440344039404140414039404040454033403940434041403140364038403340464040403740364034404140404049403840384041404040404038404140454035403540354040403940414036403740314030403340434039403340434037403540414035404140314040403640404037403740394041404840344037403740424037403540414046404340354038403640414043403240384036403740444036403940364042403840354041403140354038404440354031404040274032404340354031403640394035404540284046403440394034404540374038403740384035404740404043404140394035403340394039404540334035403940454040404540374031403340384037403740434034403940424039404240344031403940374044404040354038403140434033403240394042403140414043404240394033403440354040403440444043403840454044403540364026404240314034403340434037403340364048403740384039403040414029403640404044404040384037403440374038403240414033404340374041403640384035403740314036403540404028403940434035403740314033402740334043402840314041403440434037404240354037404240404033403940404031403940334048404040374045403440444038403140424041403540374045403340424031403540484035403740314045403940314035404440394039404040414041403440374029403540394044404240294043403140414035404040414037402640424031403740344031403940374042403640444038403640414033403740374039403140374045404340314037
4040403740334038403240434042403740324033404840394041403440394034403540374016403040354042403740414038403340374032403940374040403840334028403940314034402940304029403740354037403140394038403140233994399939973997403540314043403340314035403840384042402740354033403740484036403240414036403140374044403740454038403140334042403240334032404240424045403640424034403040454035403240354037403240424041403240394043404540384040403240374035404340394037403640404036404140374033403840314035404240374043404140374036403540274039402940394027403940334033403140394031404140354037403940454038402940404042404140394038403340414047404140424040403140444035403940264041403540464042403640314033403640314040403540374035403740394030403140394038403140374029404340334042403540384035403740414041403240364035403540364045403740264036402940334031403840394037404340364039403840384039403540444039402940444038403340354033404040364033403340444045403340364026404240314042402940414040403840394037404140414031404940334039403540344035402940404033404440434031403340434039403340334041403940344035404140394028403940404036403440354041403740454039403940434032403840314042404340354037403440364036403040424039403740364038403940474037403840334031403140274037404340364043404040404046403840334040403540354031403140354037403940314039403640464040403440334031404140334029404340404041403340314033403140314043403440314041403540434038404240454033403540354031403840334030404340364036404040334030404340394037403540294031403140304040404140334030403940434028404140314039403140364042403440384044403740304041404040414037403140454037403840424030403440294027403840294038403640314034403940414034404340404028403140274031403940304033402940374042403540404030404040134017400639923986398339803983399240144023404440294040404040434039403940354036403840294039404140364034404140314035404240414034403540354040403340424035402940414033404440354041404340354029404140314038403340394036403340354031404340374033403040304040403740314043403140374044403340354037403940284035402740114005400840244025403140454035404240454032404140294035402840414039403040374029404240354038403940394022401440074015404040374041403840364032403040374027402940344036403140324035403640424040402740394036403940394041403540304041403340304038403340324028403040394039403540294030403140284027402240014001398940044007403740294032403940374035403740374038404340334037403740354040402840304045403340294041403740314037403940364038403640314029400940013992401740404039403740244028403840314035404040374034403040314035403040354038403640374027403740414041404240314039403640354023400339773948392539063878387438653878390139353951398139954020402240264028403640364040403440414037403640414032403040374037403640394013400139963998401540264041403340394028403340354040404140344034404040284039403840394042402940314040403940364028402140104017401940284031403340344011399239853997401540334037403140414033403740344035403040394044402940364035400940084009400940274041402740314034403540424035404140364033404340314031403540314034403340454043403540364029403740404038403840444030403140194028402040254037403140434031403040354036402740354030403040294025402540354036403640374025402540213991395639453931394539473933394339593992402440394035403440414023400339893985398839974023403740424037402940314014400140003991399340074031404340334036403440394036403740274033404440394031403740394035403940314030404540404037400940034010400740284031404040344023401139993977393539033879384838283805379138003839388839484003403440384046403740434034404240374034401939873945390438853883388539073937395639623947392739103902389139103911392839513964398239813988398539773973397839914013402740324029400239743966396239613928392739533974400440254035403940424033403040274000401339863973395739333937393839443950394439593965393838903847382538123805380338333862391839643995402140334033403540424036403440234012399239773938390838983899390038983891389939323934394039483952396339583968399139803966391638713853383038323846386838903936397739964032403140344035403840424041402740394037404040314037
4031403840214022401639973987397839653962396439593952395239593964397139723992399139853989398339723944390338763849382138003777375737463765378338063810382338333864386138643873388939153920392539293938394639543959395939643967395939663973396139513948394739513936394539413939394939453947394639463943394639423945395539433956394039483949393739393930391739193918390838993904389138983908389838973885387138733861385538513851384338463829382938303822381737983799379337903792379037813785379037963803379938073815381838173819382538223823382238253816382338153815381338083817380638013804379837973796378937853791379037843785378237913782378737823775378237693765376537583754374537393744374137343746374237423730373937393728373337263725372937223714370937123707369336963690369236843682368536763679367936833674366536613659364536353623363036103610361836073614361136033608360736003609360536043597359736013596358935983583357735773573355935563547355935483553354535543547355335473543354335413527353435223519351935173512351135013503349734943502349535033500349334873488348234813479346534633457346434483453344734423443343334353427342734103402339433803368335933483330332333173303329832953297329932983299330933093309331233023297329132823290328132843281326432733260326332563257325432593259325732523254325332493257325132523252324732373235324832473238324832513247323932413249324132473237323732293230321732133215321032083194319431873188319131893184318731843180317831793176316331663164315931463140313631313116311631053107310530973094308130773084307330673060304930333030302230153007299830002999299030002995300530113029303330363048304830593057305730593057305030443046304730443046304630473059305530553056304930523055304630533039304430443034303330263027302330103024301930223019302530173012301130173012300430062997299829842988298129702967295729562952294329352935293129252918291729042902289428982896288928932898289429072913291129162929293329352942293929502949295129472946294329402937293729322929293629282936293429352928292529352928293129252927292929292922291829152913291229092905291328992905289929132900290829092904290329052903290328922895288728862880287628802876287228732875288228662861286528502844284428352827281728092798279527932791279527942805281928222826283428402842283828512843284328422841284928512852284628462841284928432849285828492849286128512862285228602846284828512850284228442838283728302829283128292829282228162820282528262820282028252821281928132811281628042805280028012807279828052796280628052797278827942789278127732763277027602757274927432740274827482743275527502758276027612762276727602760276027572756276527582755275927602761275627692770276627662777277527792771276927722777277427742768276427662759276127562753275427562753275527622757276027552749273927342729272127022680267526612646262926342628262926282640265526512657265826492652263926312628262126002605260025962591260526132611260726092601259825782561253825202499248124582443243524242425241424252437245924852515252125452548254825462530251324922475244524132396237223682351233523212329231022882272225522452229222822292237223322252226223722562273229723142327236223752376237723622364235923402332232923312333236023792387240924292456248925172548256525822594261226212627261926152606260526052606260526072600259225892582256525502553254925502556256425842610261926242626263326472669268126902686270127032721273427462752275427562741272727202701268226642641262126022588257025652551255125452548254525442550255525552574258125952606262926452652265726682666267526612667267626882694270027172719272827332729273027342729271827222717270126942692268827012699269926942682267526572629259825632536251224982497249825112531256325822598262626352640264326472655266626562656265426652665265326312631262526142592258025692551254925452552256325802584259225942612262426382643264826472650264826482645264326242620260325892575255625512541253325342528253925532569257425712555255225552550255025522558256425782569257525742571255625462531251225012487249024842486249225232546257125882602262126292632263926402638264126372639
2632263126252609259625832575259026012615264526582660267326882663262626082562252524972484249024922497251325282557257426082620263326502659267726692663265326322620258725792560253925362546255825702576259826112632262426352639264626492663266626642663264326222604259125652564254825512551256425542557255425542561257425772573258125682562258225862605262526212622262626102596257725712567255825382530252825042499248124702441241123782371235323262331233623562376240524232439246924992522256025812610263026482663266226582649263926272617260625842567256025472550255825612567258825732550251624802431238023492308228422802292233023682399243224422452247024672477248024932505251025112498249224792488249224912484247624612463244424252411239723652345233623382342235523902430247325152542255825622564257125632564255725472544254125282529252625202517253225392541254025492555257225842584257625712572257025532540251624772441238423332285223721952159216521752185222622692307234523902413243824552470248924972502249024642447241723922354230522622226220321862171218021972246226823062340236223882394240024032389238223762369237323872413243324612473249224972505250124872481246324372421241224102408242024292460248524962478245724222381233823162302229423032314233223492353233823262308229022732258225522422268228623062334235323702389240324162430244524562460247124832485248024692470247124682475249125072523252225252521251124912478245324132385235823342322233123402355236123472348236323752385239524112432246324962519251725102494245624212393237323452332232723332357234523472359236023512352234523412315230323072305231223282333235123872435247625082538255325612580258025852591259225862590258425862579258425722554254025102489247424582435242724162419242224282449246824832494249824902489249224882490248324752469245724482416238223562338230122812261226822762285229322932295229122702249224522482262228723152341237023912408241524072407239223742351233323242328233623622374238624032408242524162415239323782379237523722382238523892406241424322432244124432452246024762474248324862470244424072368231122722222220021882186220622352275231323392368238223882392239123752346229722582215219521792163216621632182221122442291232123412357238223922403242424352436242423922359233423072283226322562245223722452251226122732287228922872287228222732278229323172331236823912404239224012393238323732369234923292297225821972156212521032104210821232166221622902343237923942400239823742336228122472212218921852171219222122229224822562264226622862299233023522393242824642496249724852447242523922354233023072286226822362204218421512140212521152124213821552197223722782295230123002276225322322215220022072229225622982332236123842386239123862373235323282306227822442221217821342084201219711939191919281941196620152076214322182275231423522383240824282421242324052392237823682363234823412348234023342324231523122306229822932285228522802269228522922309233523422358235423582375237923932400240524072423240723922378237723552342232823142306229823002304231223232334233723222306228722702245223022112198217621672148211720902056203320342035205720952140218022142250226622782279228222812275227522772287229222922305231623212341233923412337233123092285226322532251225622572265228622952293229322762275226522232205219221762181218521912217222722372242224322342213218921742160215521522155216721772193219221962203220922032211220822162216222122322224223522332239224422432255226522642271228322792289228322882280228422902275228822812277227422772278226922732266226122732262226522602259224822462237222922202212220021942187218221802169213921222110210120812077207820802076207820832095210320972100211021002102210021132126212921302143215221512153215421492146214921462144215021462151215721592153215921642170217621792177218721872181218121852181217221722170216621612160215921612171216121632157216921652170216721672164216121572155215921472155215521512143213921452143213521412144213821282132213021342136212821292129211321122104208820762076206220492044203820482040204920562064206920802085208520892092209120932104210320962105
2100210921032098211321062111211221182116211321092107209620942095210120902081208220762081208220802089209020832076208420732086207220742061206920662066205820602059205820512045205620452059206020582049204320502036204320262013201120091997199019931989198419761971198019811983198419831979199619922007200319961997200020002000199219981995200320062014201420242024202220242022202120262024202320212013201020152011201820212013201120162018200920102010201420092001200720031997199619931987198619951985198619941994198819931995199319931989198319861974197519721973196519671969196419611957194719371933193319281925192619271917192319311937193719301919190118941890187818781865186718601880188718871898190919171930193219311926194219381939193519391933194219301934193819341941194319471944194019311930192519251915191719151913191919121915191019071913191219051909190619101908190019031899189518891893189118811879188518821888187818931881188918921879188518961887188718791876188018631863185718571849184518391841184618431845183818391833183118361831183818321827183118281817181418051803180518011800181218041813180718181809181318111810181418021801179717931792178917851793179518061808180618181822181918291829182118211822182518181815181318121816181718071817181818111817181318181819181818131817181518131807180017931792179817901788179417931797179517911797179417901789178517661767175917541750173117291723172517251723171517191719170917161716171717171715172017141723173117271733172917391740173217271733173617411744174917531757176717721782177017751781178717841777178017821784178017851787178817921789178617911793179417931791178617891790178317781781177217781782177817721782178517881779178117821776177117761779177017671762175417551747175117581755176017611763176917621767176817601765176217491748175317421742174617451740175417551745175417451747174617511761175317561757175917521751174917471761175617591764177217771782178617881805179418001809180818111811181118031808180418051810180818101810181218251829183318261839182918341835183818371826182918221827183118281819182318201821183018271826183318281825182518321831183018211829182918291825182518221818181518161815181518071819180718051795179517991787179817881791180117991810181618171832183618441853186218561869187218741870187218731883187418681875186518741869186318651863186618721869187418791868186218681865187418681873186718721868187018591865186218711869187218811875188318771877188218861879188518751868187018551852184718491833184018361842183618371837183918521853186018651874187318781878187118701875187418811881188818851893189018931896190319111903190219061900190119051899189618941881187218761868186718531857186118641868187118841876188918931904190218981893189018851871186118581853183418231813180318011781178317871795178717881783177917871791179117861784178317771776177217741779177317801774176617671754174017321711171216991693169316931699170917311738176217681771177217711767176417501716168116521626159515721536152014951477146614481431141314111404139313871377136513581342131112801242120411591123109510671053105310721099113111621190122512541280131813621412147715501629168717691811184118731894190819111916189918771855182018001784177417631765176217801793181918441890190519281946197920082051207020992100210020802054202020101992197019591956195819782004204421002143218122012215221522232201219121572132210620762060205320302011198219711968197419701974199320002023205620592062205820342033202020162017201720272062208621252153216521782186219421902204219622212232225022502249223422242216222322182224222722522274228823152319232023082287227522532234222022142200219621922182216221532130210320702040202420001970195719371938194419521977199220252061210821572197223822612269228622832280226522572248222422182218221622082216221722092200219621802164214921322105209520862100210421172134215621552161215821692161215421362128211621002100211321222140214721392131212921302114208020462020200520052013202620452076212521542173217721662163216421472136212421092108209520892091208220952106212021302138215521762195221922212232224022622275227822822263
2258225822592248223422152194216921312099204519911941190918981902191919491982200120222036202920172003199420182030205320852106213721692170216421342105208120642063205620722074207720862100210420972108211021372154217822052216221422112206221421982191220522092215221522212240223822392255225922542253224922432232220221532113207620432025201519951989199719961995199819992010204220352046203320212017198619711971198919982020202620482056200819591926189719011909193219572012206921052115211020932093209220962084206420672075208820992107211421402165217021652154214721392151215221632176219621972217221522122199219121762171215621292118211521012077206020332027204520472053204920282011200419892001203420542072209721092126212721182120210720952069201419531897187418401842185318901934196019952018203120202020201219901975195019351922192019301958195819731999201520372069209221192137214921612155216321642161216121722170217321642167215021532146214321482135214021382139213921292121212721172107210720922081207320622050204220172001199019751956194919351926192219321931194719541962197219761990199019991989198819851989198819972002201320222028203920432045206220622066205720632064205120542058205820492062206420572063206120512056205020512058204220492046204420502037203720462036203920482047204320392041203220232019202020132011200620062007200120072003201220051998199019941991198319811981198319801982198119831985198519871989198319781985199119911985198019821987198419831978197219651964196219601952195919561958196119581962196519581962195819671977197019761975197219601966196719601956195719531955195219521962196619621967197119621962195719561957196019541957194819481927192519311915192919261933192419291927194519261933191719121913191719061898189918941901190319131914192419241927194019291941194519401936194019321933192519191921192019241920192819151912192119181918192919201919193019231918191619121915191119111905191619031905191319021911191519041909191919201917190919041909190619021893188918921887189318791889187718871880187718771876186918701865185718541848183818361829183518271828183818501855185718611868186818691869187418741875187418711861185618631848185318441850184518421839184118321845183918471845184218421849184918401849184318341835183318301834183518281836183618431836184118361835183818401841183318281824181118071791178317741766177217671761176517721777177917811777177817741772176117551739171817191700170216951699169817101716172717411752175917761779178417821782179317901793179817931801179417901796179917961801180018051798179617981793178717881783178417851779177317711766177017691779177717781769177017711763176717691765176417571757175517401745174817491738174617431743173617381729172717201719170916921704168416781683167116621664166116651657165016451628163516091608159415981590158215781576158016021620163616401659166916731688168716951695170417171709171017121709170017021701169916901693169317001691168516931690169516931694169616911686169216841676167816711676166316701667166416631665167416741668167516631676167116691662166716661664165716521648165416551656165216591652166016581660165916531659165716611652164616571653165216451639163616431636164016331641164616401641163916401642164716501644164416451652164716501658165516641660166816701668167816771681167716711674166016641658164116381630161716181618162116141626162716261631164216521661166016671668167316791675168216791681168516901700168917021710171117081716170817171716171617101707171117171711170817101706170317061705170417111717171717231719171817151718172817181727172217221719171517091717171017161714171317061715170917091711170116991696169916871689168216771676168016821683168216781685167416821673167716801687169116971707171217071720173717311741174517421743174617551763176517621761176717681778177817801767177317681777176717771770177517721779178117931782179318031792179717911799179617951790179217911794178817811793179117921788179217971793179918011791179617931798178917871784177917791771177717721780177617751782178117811783177817701774177517671761175917551750174917511757176317641773178117931808181118231824
1831182618391843183518401831183618441826183018261823182118251822182218161813182018151816180918121813181318121804181018091803181118031804181418181813181618131820181818091805180217911789177717631753173717291727172617371741173917421745174917461742174217381723171017001687167916741685168116871693170417151719173217391744174917521756175017631768175917491744172917091688166316331587155215111473143714201404139813941406143014611492153715701600163916431667167816891692168916841690169016911696169717161728175517451713167916541601156215191497146714651475150015341575162716731715175717761803181318161828182718291826181518011788177217411721169716751659163616281624163016501659169717261738177517851790179717941794178517821784178317911783180018081814180418041813182318341855187818751886189618961889187518711857185118491838182918341833184018411830181718021786178017691763177717841786179917991815183818471855185618491852186018771894190719311942195619581958194319181901187618561831182118021795180018051811183618591882190619281954197519921994200020041988198719801987197619711974197719781987199619921999200020132033204820632076206920722098211321222133214221552163216421562137211220782048201819891946191819171900188118671868186418861889190419251960198920072023205720572054205420532035203620182016199620011998199920041998199920032027204420642074208320912094209421072101210120942073205420372036202420492045205720582069207220592065206020532048204620442029203420201997197619551928190018771870188218801906193219471957195319591965198120092029206121042142215821942200222122242241224122472246222022052197218221522114208420612041202620112003202720632118215721922215223522562248224122352229223122292230222122302233224222352229221822102199219021702159214421242107209720932070204120141985195519401913190218821865186518531855185718611890193319802029207321202149216321762176217721772181218021882169216921562154213920912037198219431902187718681870189219201924195219601966195919711969198920102031204920262005198819631944194119541983201820151990196219431935193419321934195119461955191518841863184518291822182818471885192319732021207121112122213621522153215721472147212421162094208920862085207020692057203920151995197819821996198819841983198119901990198720212031203320342033204320522053207320782099210621132117210221092108208320382007196719531938193919281963198620142008198219541915190318851891188119121937195419741991201220152012200919881968195819491951195519561958197319611968196319631957196019571957196219751991200320112019203120362031204020352025201420062003199219891988199319831989200320172037204520542065207020612068206820672061206120612048205320532057203520442043203920432048204820432034203620262025200519841969195319411937192419261943195219611971197019841978198919931996199619912003200219951976197319501940192919221912190518921884189618891902190919261927194819501951196019621966196519581964196819541963196519721978198319791985198819931996200520072001200119941999199919931985200019982002200120012001200820032003200820032008200020062005200019951989199619901986198619841983198719891993199519911987198619861995198219771975196619591962196519691962196019651972197219751972197319771972197519671959195319391934192319121902190619131916192019271935193619461947194819551963196419591952195219441937194419421941193319431941194619471951194519511956195319541955195019481951194519431942193619381938193319321939193919371944194919441938193819401943193519291929192819191923192219201920191319161918191719251923192519231924191619181911192119101908189719001903190019031907189818971892190018891893188418861873186818621859185718441849184418511847184518471849185018501856186418541866185618661864185618561858185418601854185218521851185918521855186318611869186618721868187318691870186318581860185918571854185318511849184918581850185718521857185318571858185218581849184218401844183418341831183718271831183118321839183118341841183618331839182718301819182218091810180418041793180017971786178917851783177317701761174717441739172917281728172917271740174917691772
1776178517951798180118071813181718071814181118121813182118161810179618091802179717991803180818051805180018101805180318041798179817981784179117861775177917811781177617831780177717751783177517801783178917721777177217641760175817571753176117651764176117591762177017621772176817611760176317581762175017531742173917411741173917461748174517431745175117471737174017341726172717251714171517161711171217241719172517321728173017321730173217351738173417351721172917171713171217101705169717031694170116961699170717031709171217141716172517151721172217231711171417051702169617021703168616921697169216871699169416951692169616871695169416861686169416911686168816911687169916911692169616851691168516811671166716621644163516331622161016131616162716221635163916561662166616771681168116841677168816741684167116721671166816681687168916781687169716971708170117121707171317071706169617061702170317011693169917031710169617031709170517081707170617021704170016961699169516961699169616951687169516981691170116991695169917011702169416941683168516771672167316661659165416481646165016391638164916451652165416601664167016681669167016701670166216651662167116711675167516851682168616931690169917051710170617131714171117121707171017161716171517151720172217231728172817331738173017221735172217201714171317071708170717101710170517111711171217161726172617191726172217241715171217151707170517091705170216941692169316971697168716911693168616861689168316801674166716671669166816791693170217021716172517251726174217511755176817611751176517511765175917591759176417611770177717841785178517821794179218001797179517961798179417881791178117821775177517731768177517781779178017741786178417811782177217601763175317371731172017131711170717071717172517201721173017321738174717581768177517821783178517781777177017651755175717531759175517681764176917651763177017651755175017371720171617061691167416691668166416691659166816791685168817071712171917181722172617241731173517221727172317291717171817191718172617181695167516591637160215821563153815161498147914681455145614511459147714811486148214911489149515031504151015221530153415271529152715171517151715161527153815721601162916511659166916691685169316961716172617411746175417621767177217801791180018201835185818611863186318781884188118811884188018841881187718691875187818731849182817981788177117541743174817541772178117991810182018371846184618471842183118131789178117701766175917621753175117601767176117621756175117611761177417951812181018211829183318451852185118721873189219161929192919301932193319431938194219491959196219892013202620512065207120792074207220612054205920522046204320312016200019851951192218891860183618201815178817831781179518221841186418781889191019271947197620072026205220652071206120502030201319671940191318731857185218501872188819081933195319701968197519701952193619061901189118971908192419581990201120372063208020972109212521292134214121332132213621232133213121132109208820762069206220482021199919821960193919211911189818991900189318931895189718931899190919151917193419441964197820002029205420772089212021252138214121502140213021062077205020162004199119771974198620002008202220252031202820242011199019921988200020012010202320402081210421302129209920692027200119701938191519081911190119101926194519631977198919681963194219371915191319141930196019952025206420932117213221312134213121272113211421002101210920972085204520312001199619941988198419902002203320762080207620492033201919911975196519531982200320432068208320982106210621082098208820722064204020222000198319621959196519621948194219321922191119041901189418971905192119431970199020122026203620482048204020151989196019381919189918941880188218921927196819972005203220462065208220952118211721252138213921392128213221312126212621232119210821132116211220962078205620372025198819471924189918951879186718521866187018861882188518761857184418261816183318451853185718621868188118941891187818711880187318721857186018691880188118821854182517821746172517171723176818121860189319321968199720262045207120862085208620912098211021152101209620822074
2047201419931962195419511951195619691979198519982001201820242061208521132131214521232111210020882066203219921954190618411783172316931685169017091760182618841944198020012007199019621937190818771865186218881901191619191930193919401949194819541972198419852001200020082013200020002000199920122003201120242035204020522045204220241979189918381801177117691770181018471898193819621997202120402063207420892093208820852086209120862063205620332013201220092004199919871974194819341907187318491833184218501857186218851911194719671986200220152029203220422048205420562052205720392037203620252023201920172026202220282032202120262027202620092003199019781962195019431943192319021888188218791883190319091936194819671976198619871996199020012001199720062006198119811963193919161906188718801878188418841897191319231937193219551949195219611961195919631969197219761983199119881990198119831985198519791977197319651964196719641962196219521961196019491950196119501953195819591952195419511945195119491947194019391940194519481936194019421952195019541939193519361926191719081902188418821867185718531857186818591866188018831893190019041902191619151919191619131911190419061910190519081893189519011894188418821881187518771873187118681876187318811881188218851887188918891897190019041900191819111903191119131907190619061894189818981893188518811889188818861885189018881890189418931895189518901883188018751876187218701871186518651861186018701871186718661864186918561867185118581853185718491845183618411832183418381845184718501850185318461845184418481841184718451841183618411839183718531853184818601865186518681877187518711877187918691875186718681866185918551859185918531854185318561860186018591859185818581856185618541851185018411842183518401841184018361838183518461839184418471843183618481841183918411826183118301817182218191813180918111812181418151810180918081813179617981800178817861780177117721763175917531755175517541765176417671778178817891795180418031801180418041808180618021801180117971797180618101814181218141808180918071810180518051805179117911787179617901791178917931791178917951794179518001802180117961797179617871793178717851774177017741775177417791772177317711764176117621755175417471735172917201708169916931677167816721677167316691670167316721670167616811688169616941698170517181725172317371737174617531747175917531761176517671763176017681771175917551759174917491748175117401745174317411749174217451745174717421741174017461745173317371731172917321719172717241726172317281721172217301733172917311725172217191722171217181711170617041705169616971697169916991699168816921685168516791681166816561651164216401639163616231631163416201631163016331644164616571668167316701679168316811679167716781678168316771680168516831685169116881693168916971698169916911692168616871685168316851683168216761682167816881679167916781680168616811686168016811677167516741673166516591656166016591653166016611657164816511642165016421629162916161604160015851593159215861579158215831588158916071609160816131621161916161616161316081616161116161621161716181631164416371644165116631667166916751670167816761685168116861678167916801674168116851679168916911686169216891694170216931697168916871686168516861688168316851685168516941690170116971700169816971706170217051700170117011698170016911689169516931693169916941693170217041705170617021704169616901698169516851675167816771679167816731684168216871694170317021695169716971705171317051709170717101710171417021709170817091715171217201708171617181722171917111715172017101715172317181725173517401737174617501754176817601772177517791779178117751780178117851780178517871780179117911799180018111819182418181829183018321837183118401839183418381835183818381840184018501848186018671891192319662035208220972103209920982088208220722067205720562043204020472076214424403546398240094019403439203429302326432273191115501191084405120224000801233275392239854020402840354040404340374042265716350680000300010000000500042386386339784012402940314039403340394033403940424033403127151149000400010005291639124000401340314034403740434037