1833183218321831183018301837184218341838183418311839183818341836183018371841183918441835183418391844184018401840183618411835183818341838183218391835183618351834183218331830183718361837183218311832183118361835182718271827183818281834183118261829183418261832183118321833183118301830182918321837183718341834183318361838183918401835183418391830183218341832183218291828183418331831183118331829183018321827183218251826182618311822182918231829182718281825182018211823182118201824182618261813181918221824181818211816182218191816182218161814182418201821181418141821181618241816182018211812182518241821182018211820181718241827181418141820181718151820181918201817181218201819181418171815181218161815181718151816181518211822182118181820182018241797183118241825180018241823182418231827181218251826182418291822182618311820182818261826183318311824182618231832182818191832181918251827182718181823182318231822182418231818181818201826181718171797181418191793181618131816182618181815181518201819181518091813182018151819180818161821181718231793182218131826181718221820182418211824181918271821182018161824182718241828182618241829182318311826181718161827182818271819182618291827182518241831182518221821183218261832183018321833183318251826183718381831183718341833183418331834183218361835184118341837183418331837183518361833183218391838183218321833183518331835183318351841183918321840183218391836183218371827183618321833182818321837183018341830183118281829183018321830183318261830183118351829182418291830183118291834182618291830183718301830183318371828183118391835183618361839184118421835183218331837184118401838183718431836184118411839183918371842183618371837184118341834183318371842183118341834183818411836183118331836183618381836183618351835184018381831183418351834183918391834183918341841183618401841184018391840183618381834184418411838183718421842184218441837184118391834184218311836183818371833183818441832183118361837183918341834183818361835183718361836183918441840183718351840183318351838183718391834183518331834183518361836182818321837183818381839183018311836184118371834184018341840183718341840183018371830183218301831183218261830183018291839183418371833183818351828182918341829183318281832183318311833183218301832182418331831182918281828183118351834183418271832183618311833183518351838183518371837184118421847184118371833183818461840184018441840183818461843184318461844184118431841184018451843183918381841184018411841183918421836184018361839184118351836183818381834183818331841183018341838183418371832183718341836182918351833183418371829183618381837184218371834183618351842184018331836183518441837183918401843183918361839184318411845184818381837184018381844183318421838183518321837184218351832183618321835183118351839184118321834183418341839183718291835183518421833183618391837183418401838183618401836183718371838184318371841184018461838183418381843183818351840184018361838183718351839183518411837182618361830183118321836183418321837183218241834183118261831183318261834183518331832183018341831183418381832183118371837184018341840183718441845184218371842184518411836184518431846184418431844184518461841184618401839183918391841183918421847183918391836183518391835183418371836183418411834182918361839183118331834183318371838183318361838183718381838183318381838183918311841183418391833184118431837184118421841184418341842183818401843183918431838184118411836183618381836183318371842184018421836183818301836182818391832183218301830183818351835183418371836183118331833183418361833183118361835183018331839183218411835182718371841183518371839183418401834184018351838184018341837183718431835183918441838184018431845183818411841184118411844183918391836183818361837183918391842183818361840183218401833184018341832183818361833183918391833183718391839183818401833183518391839183118391840183918391841184018371836183318391836184018381840184218441836183518391831183318351833183818341838183918361832183018351835183518341838182918301834183418351829182718271830182818321829183518311830182718301829182818281831183018321830182818321831
1828183518321833183018311839182818341827183418271842183318281832183018331833183318281832182518301827182518261829182918291822182418251824182918231824182818281824181718211823182318241820182518291825182518241814182718221827183018211825182218221828182418291824182318261828182018201824182418271818182718201829182218261829182818251824182818251831183518281831182618311826181918291827183118271822181818291829182718241825182118251824182018251825182318191824181718211820182418241826181918251822181418131825181518241818182218251821182618261820182518211825181618211815182218221825183018251822182618281825182518201838182718131817182318271825182318241820182918271816182518241813181418221829182818271822182918241828182418241819182318241826182518241820182618271824182818341827181518221829182018241835182718241828181718231819182618191833182118161827183418301826182418231826182718261827182918191821182818211814182318241825182418211830182918311823182518251826182618251824182518281828183018271835183118341836183618311840183618251833183718351831183118421835183318291833183618291833183718351834183318351832183318371835183718371838183418351837182918321832183218321830182618251828183218341832183418251825183018331824182618241827182918281825183118311829182918251825183218271833182318251831182818281827182918361826182918361831182918351833182518291834183318271827183318341833183218351837182818331832182718281827183318281835182518291815182418321817182118231815181718211819182218191820182518271830181918251819182818201823182818251821182418271827182718291828182918301830183218381830183618391837183718331833183718311837183018341830183018361831183318281830183318321833183318281824182618281832183418271826183218311826183518271831182718241831182718301823183018331836183018291834184218311828183418301837183518321840183018361832183218331832182818361833183518321831183418301829183318321834183518331833183318281835183318291830183418301834182918331832182818351835183318311822182618251827182518291821182818341828182918281828183418261834182518311830182518341829183718241827182718271834183318391835183518311835183518291839183518301833183518371829183718371835183218301833183718301832183118331828183518251831182618361825183118261828182618251826182518331826182418301824183018311826182218261828182518321825182818201828183318311830183318361834183318331831183018341829183718311830183718411835183418331836183518351837183318371835184118341838184118431836183818331835183218321839182918291835183118341837183518321837183418371830183818381837183618371833183818331832183518351834183118361835183318421836184218351839183718311837183018381837183918291830183618311836183618361830183418331836183418301838183518351829183118371828183218331833182918261832183318301827183418331827182518381825182918311827183418321834184118351826183318361828183318371832183118341837183118331834183918311836183218321832183318331832183018331827183418331832183018291830182918311832183318321839183918381841183218371828183418401830183918351831184018301839183718401836183918351840183718411838183818411832184518321841183818331837184118431840184018441837184518371841184518441837184418411845184218451839183518391843184518431843184918451848184218441845184518431842183918361841184218401840183618331838183818371836183518421833182918341835183418361841183918351832183418331832183118371834183718341836183118361830183218341838183018331830182918291831182518371833183018311829182918331828182618261836182918321825182818291837182618291835183718351831183118361830183318341829183218301830183118291834183418411837183718431833183118331841184118381840184118421839183818371841184318411839183218421837183618391838183218351830183318291833182718331829182718321832183118321831183718301835183818371833183418351834183818331837182918331832183418351832183318411839183118341834183518391835183618351844183918401838184118411838183518401836184318421840184118331843183618381827183318371817183418361840183518351828183418341813183818391827183418341840183618391832182618271832183018381816182718031836182818251827183318321822
1829183218221834182118341833183518361834182618301835183718391831184318321835183818411842183918351841183718371835183518321828183818311832183518251836183318111841183118281836182818271834183218341836182418301825183118301829183118341844182618301833182818281831183218251834183818351833183718181812183418361814183818361839183718321837181818391833183518341833181018351829183318331839183518371833181218311833183218301833183218291827182718331827182818231828182918311825182818331830183018351837182918251826183118331829183218401829183618361829183318291829183518331838183618301829183918401834183818371834184918431860183718401837183818371830183718331834183118101829182918331836182618331831183018251832182718291823182818301830185818271830180618321831183118301833182818351835183118331834183018391838185018241839183918261838183418391838184118261839184118431839184618401845183918381845184918391841184218441840183718411841183918431834183818351840182418381840183718381835184018361840182918341831182718301835183718321834183918351825183418331831183018191841184018401840184118381844183918401832181918371841183818401833183618331838184118351833183718341830183218351835181318401828183218291822183318241826182418081825182418241825182618471824182718281830182918241833182918241832182718191834182718221828183418331840183318511838183718371830183318381839183418351840183518351830183118331840183618311830183718371829183118341833184018351841182718321813183518251824182818231833183018351825181718111831182918231829182018231818182018161815181518161816181518221824181518131816181918171821182618161798182218241823182318151819182518241830181718201827182718211818182518201817179918231825182018221824181318181819182518151825182118191814182118191815181418031817182218071821181718191814182118211821181318171819181618291820182118221802182518231818182018271819182418251819182418471821182118191829182718301825182418331829182418231820182618231824183118241825182418151825182118211830181618171824182418131824182018181821181818221820182418211830181718191815182018171824182318221825182718211826182618161826183218341833183518331836183018371832182718401833183218331843183318341828183018341835183218301828183018301831183218291831182718261830182718251831183118271835181518311825182618241829182818321826182818321833182318291819183218341830183318261831181818331831182818251833183118251826183218281833181718231833182618301828183618341830182118331832182818321827182718281834182818331825183318301835181918251829183118301827182918331832182718331833183518321833183818361838183418321831183518381835183718411839183918301833183818391838183318401836184418411841183718381840183718371844184118381835184018401835184018351840183518371832183618351831183418311833183618361836183618351836183318301836183518411838183818361833183918361845183218331831183818351841184118431836183818381837183318441837183918331842183618391834183418381842183718401838183618431835183818391840183118361836183218321832183418331833183618371838183418331833182818331837183318331834183318341839183318371834183418341836182918311838183418381829183918401835183418421844183818381834183618361840183518381842183618351833184218411836183518321840183418411839183918371837184018371839184018401842183918341840183518361835182718331831183518351839183518351841183318391838183318401837183918381849184118401843184118441847184618451845184018501848184218481849185218521847184718491846185518491851184918471845184318451848184718511848184418451840184318401846184318451844184218401844183718431840184318421837183218331838183818361831184518331835183618391835184118411838184518421834184418381839184318371836183718411839184018421834184218361834183918311831183818401835183418361838183718371833183618371835183718361838183518361835184018381839183818381841184018341844184518371840184218441843184518441844184118501844184418421847184218461843184618441848184718481846184718501849184718501844185118441849184418481847184918511842184218501844184818431843184718461844184518351843184018391831183818401840183418401842183318361847184218381840
1841184718371844183918411843184718391846184218361846183518461851184518441842184918501845184518511848184118361839183918401838183018331830183118331835182818291835183118321828182318241823182618261829183118291833182418211828183418271824182418281825183218271829183318291833182918281836183918341839183818331839184418311832184118311834182918331840183618431827184018421841184418381843184018351838183618361836183918411833184118381833184318381839184118411837184218301831183218341835183118321833183718351834183318391829184018341835184218381841185018421845185018481841184618481844184718461841185218521850185018471844184418531852184618501843185118521847184418501847184518441849185318461844184718411845184018391841184018411845184318431844184718411844184218441847183718381841184718491840184818391837184318421844184118411836183918401839183418401839184518421843184118431847184218431844183718411843183918351839184118381834184318421837183618361845184018441839184318401840184018461843184118391847183718391839184518421844184318421841184018441844184318441846184218461846184418471846184718441844185218501842184618411848184118461845185018461852184518361846183618381841184618471837183918381848184318411842183818371847183918411836184218351842184518351839183618441837183418381839183718421837184318351839184018371834183818421843183918401836183518341839184218451842184518401840183818371843183918391837183918411839184218411841183518381838183518391841184118381841183818421838183418361835183818361830183918351840183318381836184218441837184218341836184318371843184518461844184618441840184518491845185118461847184518511851184818461851184718511844184918531851185018451843184518451847184718471838184618461843184618441850184118501842184118451840184418441843184718451842184618411844184518451851184118501844184418511849185118471845185218501847184918491846185118441850184818481853184918511850184518561852184418491847185018481846184818501849184818431846184018461844184318451841184018411843184218461838183518421846184418391841183918421842184318401837184318451849184618421839184018431851184618461843185218481843185018481850185418451846185518481854185218471848184818451851184518531847185018501841184718451846184518441847184718411847183918501844184218421839184318451839184418431841183418361831184018281841183718371832183418341830183518371838183818361836183518321835183018361830183118321833183018391834183418341836183318381839183918331839184118401832183618341837183418361835183718391836184018391842183718441835184018421836183918431838183818461844184118411844184218391842184318421846184318421845184518481850185118491845184518411845185118511849184718441850185218571844184318501847185018511850184618521848185118511847185018531853185518551848184818441843184718431847185118481846184218441841183918471841184518421848184818431848184118451845184518511854185118501850185018481851184618511849185718441847184918521846184718471854185818461851185318571853185218521852184918501851185418491846185218491847185118451842184518501845184518451848185018511849184318461846184518491847184818461846184818501847184918451847184218471847184418521844184918481842184218501839184618441846184918421843184518491845185018441844184518451849184118431844184218481848184218441842183718431845183818451839184118391845184118401840183818381839184118391845183718381842184118461842184318411838184618451847184118471845184518451839184118441841184518511842184018431836183818391835183418391838183718331832183918401836183018371836183718331832182918311832184118371829183018381832183818371833183518401834183718381841184018381841183518441840184218431839183518351839183418461848183418391837183818411835184218431837183418381842183718361838183618361835183818341837184118361842183718381833184018421840183518361837184218391842183818401837184018391839184118351841183918421841183918411845184318451842184518461835185018471844184718511842184318451848184818501849185118511847184618471851184918531849185318501849184618511847184918461843185018481847185118451846181618421847184218491839184218431837184018451839
1836184918311846184418391821184518421842184618461835183918451848184918511831184418481857184418531853184718221851184818501845184718391841184118391852182218331840184118431846181418441832184018391835183418321833183218331842183418361835183118321837183518351846183018371840183418461834182918471833183518551839183518421835184118401837184218361839184418351846184018411841183718461837184118401840183818371836183318381834184218351837183618311833183318331837182918331837183118251835183118341828183018341838183018361829183218331832183718461835183718381833183918391835184018341844183618391840184218331834182718341833183818311838183118301839183218301833183418361833183218311833182518321832183618351835182218191823182018321829183418371832183318311830183018301834183318381837182618291833183318341828183918411841183218361837183318371835184118371837184118321831183218321836183918291827183418251839183218341831183518381831183218301836183718251826183218271827182518281822182718341838183018321825183418311829183018271831183118231833183718411835183918301835183318391838183318411839183818381833183918381834184018421833184218331846184018421839184318401842183718381834183618411840183718371834183618341830183418401837183118361840183518401833183118351835183318311834183818411836183218321828183418371831183718341834183218311833183418321830183218411834182918361833183618321836182718381835183718351835183918321837183618341836183318321835183218351838183718341831183418331836183518341839183718351836183318331831183818371839183218341838184018361836183118381839183918351837183918331844184218411837183618411837183718411847184118421847185118441847184818451847185118461850184318491846184818501845184418451838184118451843184018431844183918401837183418341833183718341839183918411844183418441836184318391837184318381837183418381845184418451846184518491849184718481847184018501849185018421847184718441845184418451848184818431837184118391839183818441839184018401835183918331839183618361843183418431837184018401839183718401841183418361835184518371836183618321843183918411831183818371841183818421837184218431841184518461847184318441840184018451846184918461852184418431842185118471846184418451848184918521849184418461851184418451848184618421838184518441848184018391841184118441841183718451841184218381842184518391837184218441844184618461848184518491848185118441851184318491851184718411848184818421840184818491839183718431842184018461840183718441841183518331838184018301833183218321836183318311829183218281828183318281832182718281827183318261830183418281835182618371831182818351833183618351837183918371839183318361847184018411840183918461846184718471844184118461844184118381841184618431840184118391843184318431842183518401842183918411836183518351845183718371841183318341841183518381837183518411832183518401837183918331832183518341835183618351833183218391837183818331841183818321839183418401836183818301840183318271831183318281835183018341831182718231832182918231827182718291825182618171822182418241825182418251822182818221828182418261824182718261827182018251826182618281826182818261824182818311826182818281827183118291829182418321826183318301835183418351835183618311834183418331827183018331831183318251827182718241827183318361835183018351826183118281832182618311825183118361826183118321828183318361835183318351838183618371838183518331839183818391839184318371840184218451841184218361838184218391838184018431838184518401847184218411845184518431841184718451849185018411842184118351842184018431844184118431840183818411839183718371840184118411836184218371839183818311837184018411835183918361834184418351835184118381840183318381836183718361834183518371837184218411837183518351836183818351835183718381832183518311840183018331832183918361830183318301837183518331836183418341841183418311833183518401839183618361842183918421845184218411848184718411842184818431848184718501845184518421847185218421851184818491848184818441848185318461851184718481845184418471847183918471838184218411836183918391844183918391840183318401840183618361838184018411835183918331834
1841183818291838183218431833184018371837183518351839184118441844184418451846184718511845184218441845185118521846185018441852184718551850185318501847185018531848184718621849184618501853185118491852184418481843184218531851184718431842184318391840183718361838184218451841183818421842184118411831184518441845185018541850184518491847184718511850185518531851185018491849184718441848184218471843184018471838183718411837183718421820184518371830183318181825182618191831182418271816182718211823182418191817182518241823182918251826183018341820182218281829183118331834182718291828183718331839184018341837183418451842184518501845184418401834184118491832183318461846184118481845184318441850184018411847183918471845185018461850185118501846184418471839184118491842184218401839184118421840184118401834183818401842183418361846184218411841183918411836183818391847183718361841183418391840183918331840183718311836183818371841183818361838184118391843184118391837184018371841184018391840183518411837184118391841184118391841183818411840184518441843184618481832184618511841184018481848184318451849184218471850184818481852185418491853185618531847185518521853184918551845185318501848185118601850184918541856185118551849184918471844184718491844184818471851185218471846184518491849185018441851184418421845184518461847184618481847185118531850184818511851185318521858184918481852185318491848184718541854185018491846185518491848184818511852184918501848185018411846184418431843185018451845184418451847184418421845184418471845184218431852184618511849185318481850184918431853184618511849185218431850185618561849185218501850185518561854185318501844184918451849184918441848185218491847185018441848184918481851184518541847184918451849185018541851185318461853184818491855184918601856185318571855185118611859186118601858185618631867186218671864186018601866186418651872186218671874186518671863185918631867187118581864186518671865186218611869186318661867187118631865186118691865186318631869186518611859186718611863186518611857185818551867186218571856185718651854185318571853186018531859185918601863186018591854186018601860185818581860186118631866186718641860186618651866186118561864185418571858185918641856185918591852185418551852185818541851184918491851184818451844184218481851185118491841185318501853184818481849185218611858185518581856186418551860185918631858186318691856186818701863186718661872186318651864187018661865186018611869186518651868186018631867186018631868186618591863186018621863185618601862185618581849185618571851185118501856185818541857185218541861185218531856185318541854185118571854185818591849185618571855185918541864186318651862185818651862186118541863186218581857185418591859185818511851186018531856185218561854185818581856185218581854185618551851185818541855185618501859185418541853184918581848185618521853185318511851185218531846185218511855186318531859185218591848185718521851185118531857185918541851185318441847184818471851185418491852184218481840184618471841184518511850184818481851184818531852184818441852185218471849185018541850185218591856185518571852185518511856185918531855185918601856186218551859185518621859186118641863186018631868185618591860186118611859186118611856186218591859186018561859185418551855185418621856186018521856185318571861186318571860185718501852184918591862185618611854186318581858185618621858185918541859185718591861186018591858186118541861186518641862186418621858186118671859185918641860186218581864186018581859186118591864186218621855185818561857186018581853185718621859185918501850185618521851185718501858185218471855185418541855185118531858185118611853185218631858185618521857185718601852186018561857185418621854185818541859185818581856185418561851185018561849185218541845184618501840185018421846184518501846184618441847183918411843184018411844184418381843183618421845184118441840184218371837184018421842184118411838184518431839184918421840184318441846184618451848185018501852184618481847185518451848185018481850184918511845185318481851184418531843184218461844185218411845184418421846
1841184318371841183818411833183918361839183318391835182918331832183418361831183618381839184118301837183118391842183918421841184218391837184218431837184318431855184318361841184018441842183918391837183818381839183118311841183218321834183618261824182618181824182618191825182118221825182418241824182118281825182518231822183018221822183618291829182018371816183218291831183118351839183618361835183718411842184118391842183618411830184018381830184318311836183818231833183618281833184118371834182818241840183218291830183218281826183118371830182918321829182618291825183418271826182618181835183518181816181018241827182318251822182118251824181818231826181618261819181818271822182318231834182718261824182618261825182018211823182618221820183018281822182218241823182618181822182218211827182118301831182918311831183118371827183218361832184018401841183718331839184418351842183318331838183918311836184218311830183218361836183518311829182518281827183218261831182218191821182218201818181518191813181318131813181318141814181918171812180718141810181018081814180918091813181618081813181118091813180818061810181518121813181618131818181318121813180918151810181418181821181318101812181018141816181418171815181418161812181218101812182118161813181118181816181118101809182018131807181418161813181018161816181918171818181918241815182218151821181818241819181418231819182018241820182218241825183018211823181918201825182218201824182418241821181918231817181618191819181718161816181818181812181918181813181518131817181018191809181218121816181618081814181518121813180918181812181318141821181518051812181718171816181318101813181218141816181418161818182118221809182118111814181718141813181818121815181818151809181318101812181218101811180218041810180618091803180418111806180318021803180918021804180318051798180518031810180718131808181218021813181018111812180418041809181118161814180818121818181418221809181618131816181118081812180818031806180317981804180118001805179418011797179618021804179717991790179217871795179617951792179117971794179517961801179217951794179618021800180417961807180217991803180618051803180718061804180418041806181018171806181218111816181318111813180918081806181618101813181318081813181418141805180818071814180418081810180318011806180318051803180218051804180018031802179417991796179217971793179917961791179217921790178817881791178817861790179217891788178817851795179117991789178817921789178817941788179317951788179117981794179317931799179317871793179617891789178817971793179617891797179417871797179517861796179217951791179317951792179417901800179217911805179918001795179218021798179417981800180117931796180018031799179818031798180217951807180618011799180218011801180718051807180618031805180318021803180218071801180118061802180317991805180518021798180018031802180318031797180418021801179917981801180218011803179717991799180117981804179517981800179817991801180418051798180318021798180118021811180318041806180818011801180518041799179718001805179617941800179617971801179517941794179317971801179117891789179417871792179517881792178017861782178717821780178917851788178317881777178417851777178517871782178417881790178817891790179517911792178317961789179817861790179317971792178917891784179317861783179317891791179117841787177617831779177517851775177517871784178317791779178017781779177917711780178617871782178717891789178917911781179017901793179317961791179417941799179418021791180017991800178917981795179917971797179917971795179817961793179717961798180018011798179518011801180418041801179617951797180017921795180317951799179717981794179917931796179817991806180018001799180417951798179618001803180517961800180918021801180117931802180018021801179618031798180018061799179717961802180618051802180718011804180617991800180818011798179917981800179717961796179317971803179917951800179117941795179617901797179517931798179618021803179718001800179718011800180518071799180018051799180318041809180818061806180117991802180417991800179818001796180318001799178917941793179917991787179117851787178617911785178417871781179017831788178917821789
1783178617811781178217831785179117781779178517711785178117861784178617771789178217901791179517961798179117901795178917961795179117871791179017981789178317941786178817891779179017871785179317821781179317861789178917821790178917871781178817831777178417871789178217911779178117821788178017861782178117861793178617831788178717811788178317901773178917881785178417871789178417861796179317971793179217891785178717871793179717931784179717861785179217781790178517791782178417861782178917811785178317751787178317821780178617811781178317751785178117841791178217851785178517891791178817961788178517881788178617891795179317931795179117911791179017971794179617951795179317931797179317981797179717951794179417951787179817941793179117961794178317921789179017931793179017921788179817921786179017931792178817941791179417971790179717951795179617921799179417991798179317981794179717981799179718011796179018001795179617971798179918011791179017961792179317941789179217951791179017881792179617921790179417891788179417921794178517861795178217831782178517851786179117881789179617891791178718001788179417891796179417931794179517951793179818001793179417961796179717961804179018021796179118001793179417981797180118001801179217931796179717931796179417991793179217911794179517981793180117921793179617891798179118021802180217961799179418041798179518061800180017951797179518071800180518021803179917991800180918041799180218051797180018031803179417971790179617931795179117931796179517941794179317881789179017871799178617961791179217911791178917921791179517961794179617931796179017981795179217901787179717951797179917981801179518051801179318011795179218021793179817921799179217971794179217941791178717821784178217871782177917831782177717801771177717711770176717781768177217721768176317701766177417711770176717661773176817711772176617731777177617791782178217851786178117861781178617851790178517931789179617841792179017951797178717911798179617931795179018021789179917941787179017921795178717891796178717891790180217931793179717971787178817921786178517861790179717941791179417961787179218031793179417871797179517931793179717971797179717941789179218001796179717911795180218041803180417991803179517981797180118001803180618031805181018001806180718101803180717961808180517981795180218041801179617981802179118001791179817961796179917921792180017921794179317861795178717881792179217921795179417951795179817971795180017951800180217951802179617941793179317941795179317981798179817921800179417901790178917941791179017981793179117921793178717941795178917851792178817921788178817891785178317851782178617861784178817911782178217811789179017871791178717881790178317911787179317801794179017911789179017901789178317871780178617931785178617941791179417911789178217831785178517851779178117901789178517831778178417871780178717841784178217851782178817801779178617901784178017841789178117821787178717881787179017841786178817851790178317871782178117871791178617891780178717791788178717871783178117871785177717831775178117831774177317771781177517771774177717731768177917701770177217721775176717671767176617641771177317591768177017631767176717711765176117661763176517671761176517601764176317601763176417581766176717671770176717681760175617601771176517661763177117621764176917651766177017681773177217791770176917751776176517751773177517781771177217811777177617791778178017781779177017751769178117811775177317791776177917741777178417771781177817821782177817751773177917821774177117701772177217701773176317751777176917731774176717651762176817631768176417691766177517681774176117641775176817681772176017721770177317671763177317711771177217751774176817811778177917801772178217781774177417821774178417741773177917801780177817831778177617841783176917731778177517711774177717721777177717781773177117791770176717691771177317711772177317671771177317721770176917721762176417671772176117691771177017741766176917721773177417741770176917721768176817621770177017771772176917731780177517741774177117821778177917731779176717771772176917681777176817671777177117721761177517751767
1773176717681767176117681765177517661770176217601763176617631764176517661761176717601762177317621764177017711766176717671768177517731769176517691768177017661760176517701763176517621772176417641765176517581763176217671761176317551759175517601747175317551751175817571765175717641753176817531754176917591766176817591761176917731767177117631770176817651747177417611767176917751765177117651769177117711762176617631763176317731754176817711757176617501766175917521755176017671755176917621755176217541770177717621771177317611755176917711767176517691771176317741771176917791778177817771768178717711773177017751775177917841784177517761786177517821778178517841779178617851777178517881787177917821782178217771786178817821783178217911784178817831783178417841783178717871782179117901792179517921795178317871781178717821784178317761787178917861788178717801789178517841791178817871784178317941790179217931790178317801784178117881777179517881790178717821790178417831780178417801781178517901786179117911780178217831787177917811789178317881794179317891791178117761779178117821790178517871780179117881788178817851789179217951793179317931789178817951800179717991802179317921794179217951805180217971799179517941799180018001791179018001794179917991801180317901806180117931789179817951795179018011789178417921800179317871791179317881790179517881790178817941784178617861791179617801778178417891793178317871784178217831775177417761775177617881787177417781780178217711778177917791778177317791777177917821783178717721780178717821780178617821785178617821783178517791791178317811794179418021788179718011792180217991800180617991801180018091793180018081811180018031808180518041804180218091809180518031814180018021811181318111807181418061809181618151807181618111809181318101805180818121803181018151816180818121814180718041810182018221811180418141820180718161806181718211810182418161821180818181826181518261819182318191822181918291822182718231818182018171824182818261821182418141812181518141826181418161820181418081819181418181821181418091813181618181824181118091818181518091805181818131812182418191818181618121820182118111820181218171823181318101820181418221807181418161809181218221828181418141818181618121816181218131817180418071811181118091800180718041803180518091798181318061807179917961809179418071793180118031794179817971797180417911789179917911790179517891790179517961794180818061797179618041794180218011792179718031811180418041800180018081800180218071809181418111801180618101813181018021805180418151811180318091808181118061806181118011805181518161817181518041799181218051817181118091805180418131808180618181812181518221817182318281819182818341817183218381837182218341832183818401839184318411848184818521840183818461842185618431847184218471854184618441842183918461851184818551843185018561841184018501849184018501845184618451856184418601848184818581853185018551845185418551859185918611856185618621846186618621864185118651853186018591851186318611855185818621868185218481852186018511861185618571853186218561845186318531848185218471856184918421853185118521849184718461845185518441847185118521851184418531840184618531859185418551850184918571854185518601848185618591860185618411848184418421851184218421845184218441843183718411831184218341838183218401827183818351841182918321836182118181819181318161816182518081801180818071811180118141810180818131806180618111820181218151816182318221807181218171820181418171819181418111807182018171813180318111816180818141818181218091810182318101812182418151819182118191812181318111823180918111819180918081812181718201813181218061806181718081807180718071797180118041801180517911796179517941789178617901798179217731787178017751770177417671766175917691758175917571751176417601764176117641765176317651771176217791775177817781778177517771770177217771775178617821781177517811781178917771778177817761781177917831773178017891772178517891791178917861782178817781779178917871786177917751783177517741774178117761775177617671764177017611766177117671776177517691770177117661770176517691770177817721768176117611764
1759176217541746174917491735174717341730173017251722171417171705171017011696167716991675168516841674166816671654165516451642162816211614161016101609160716011584158115801569158215661559155215601543154315481536153215341523152015131516150914931490147014671462146314501435142414291433142614341436144214401440145814571452147114741472148314801475149114821494148214861493150415051497149414991501150414911503148714961496148114981487149114771493148514851481148014811496148714881497149115021487150114931493148114851478147114631465147014741480148214811495149715021506150415031509150815031505151215191513152715191534154315521549157215741583158915881590160616101615162416341644165716581659167916711669167016811693168916911700170116981695169916911696168916841675166816641651164016281623162016021609159515891591158015791572157215791574157615821571157815741578157215791575158715921590161016161619163316241637163716471644165216581669166616781684168416971699169816941707170917171708171517131720172117321726173417281737173417241727172617291712172017091722171517201714172017161725171417181718172117141714171117111725171717171720171517151716171517111710169917041701169116981700169316931689168316791659166216581655165216521645164216421645165516511641164516481647164516471650163616551654164616551645163816421633164516331641163216421633163416231634161416181621162416131606161616041622161616201615160116081597160715981596160015991598159616081612162316161626163116261636162616331637163416381635163916421653165116531651167316701677167016731675166716641659165316611672166416761680166716731681168516841688168816881689169817021717172617361726172817361746174617501755175317601766176917721766177217781770177517631780178017731780178517841797179318001799180018001801179718031800179817961800180017921791179618001788178517861780178117761771177717681768175917591747175117491743175517331744174117491760175317631770176217821777177517721777178017881774178217811779178217761778177917721775177017601761176317561752173617441734173917271743173717191716171217051708170116971684168116801677167316641671165816561646165616451643164016421645165216511651166016681673166916611683167316801683167316741684168516891683170317011696170916981715170517141712171517151713172017221729172917421742175017581748176317631761176317671774176917781780178017861777178017771775177617581758175117421753174517351729172317221711172117091713171317081710171417211726173517351723173917351732173017281730171617191719171417161715172217161726171617191730172717351732172817411730172417291726173117371730174517481740175317561754175317591759175517481749175217541762175917631759176117551760177317731779178317781777177817791777178917841786179317861790180117951792179417841783178117771779178717771780177917781777178317841778176717741773176917801780177517661771177517751780177517741784179117911789179517971799181418051810182418161822181718261829182818351832183918531849184218421839184818531843184918411845183418351844184318451844184218381841183818441845185218571865185918671856186018631868187918731874187918741877187118771872186518621873186918591862185818541865187018721864187818661871188018781869187118661875186418741863186318701870186718661873186818771880187318641871188118761868187618641859187418691871187718731870188018821876188518811877188118791869187318691865186618551856185918521843183618301832183018201804181118161793179017801776177817651757175717521745173617361734172117271716172317201722172017191721170917191709170417081701171017071712171117201722172417221729174017421737174717541749174417521751176817651766177317891795178317881804180718061812181918161822183318261825183118261826183618421827183918381838183918361843184318341833184718381844184518421842184818611864186018531860186318531866186018641863186318601850185218531858184218521845185618531843185818541853186318641859186518621856185718531846185618601859185118521846184918431833182418321822181418091810179317871783178717921784177517851792180018131815181918281828184118341838185618581871186918761876187618861896189019001894
1903190319041907191919061925192319111913192619141927192719221920192919251922192819211932193219381939193319411932193919331937193519291938193319241930192119221919191419121913191219131916191118971898190419031898189418931892189318831869187818681869186418531845183718191815180417981793179117801777177217701774176717611763176317601764176217591764176717621763174917651762177317691773177517771780178217971794179617941797179718031822180518181815183018291831183518271827182918191819182018151829182218141815181518241824181518141818182318311829184818341839184018511865185318801871186818811882187618841881188018761881188318881880187318701872188118711866186618771883186118781872186518711866185718591864186918561864186118691858186518711863188018731877188218841881187218831873187718821863187818641870186918631862186718811869186118631870187018691871186818651853186518601847185118641864184718571853186018571865186218611859186118591860186318661865186318681879188118881883188818811885189018941897190118971900189218921897190318931896189118901896189418891893189518841882188918971891189218991895190519021920192419261923192919391932193419301941192519431920193519271929192519211932192019261922191119241915190819141916190719121918191119061914191819201923192119201936193019291943193719371954194319461942194419401945194419401945194719431932193319281923191419161913190519001898190518951894189418851894188418921897189218921887189518921904189318911893189718951891189618921894189218911879189318841880188118811888187618821881188018731874186718601847184518311824182818181808179417871785177317671754176117501746174617581763176917771788179818041812181218301819183218351852185218681864187718741884189018891895191219091911191919321929193419411935194119511938194819481943194219461952195219521950194919481957195519601960195919521956195919661971196319711975196319621962195719561950195719441937194619331938192119331918192819291930192519401944194619511949195319621952196819791973197119711979197919841980198719841983198619841988198919961987199219821984198419951978198119781975198219781974198219811977197619831965197719721980198719891984198619881997199019982005200720052006201320042011201120112006200920041996200419952000199119971987199119901984198719821977196919771968197219591965195819621961196019601957195219601957195619571955195719551947194419491939195419371941193719271936192319231928191619141906190419101901189619021893190218891886188418941876188318781883187718821874187518721864186018571856185318481852186218391851184918511854186518681867185818611864186718691875188318801878188218851889190819071910190819041916192119091919191919141919192819291929193519381947194519481951195719491958196319591968195619751968197219731967197419651960196819631967196219561946194719511956194919421937193719301930192919211920191819161919192019111911190619111900190619091915191619171915191719211930192119231923191919201918191719121918191919271915191119051904191119081917190719181909191119121920191119011911190519031908191319231911191419231919192919291941193419341942194219461944195019601957196719711977197819821983200120012002200520212014201320112023203420292039202120342036202920252037201820272025201920132018201120172010201820162005200519992005199919992005199519921988198719891982198319751975198419841991198219911983199019931983199119831979198019641960196019471948193819351927191119091901190218851880188118821874186518641864186418551857185118631866187818771882189318941897189418981886189418901889188018911896188818871902190319071916191219171927192819451944194619481954195919491954195619561968197119631974195819731959196619621965196819701968196519681965196219511956196119611964196219631977196119691972196819711972198019791974197019661974197219671968196719561965197119521958195919541944195119421936192519371938193119371943193719451947194619561953194019471948194719381943194119581945195219441949193519531941193019341940192319311930192719291933193819311936194919531945194219501952194519471945195019491943194519371935193019371934194219471950194419491952195619631977
1971197919801983198819992009200220022000201120152007202120272024203120272030204020392027204420342034204120242033203620342034202420252025202020152007200419991996198719761970196019551941194019311916191619051897188718841892188718831888190018781884188518981900190719261919192019251936193219421947195119631965197619801986199219901992200620041998200820152007202520132028203320232044204320482034204520412045204620452042204620382038203920502039202920292034203420282037203020372031202520272025201920092010201120072009201020062012200820032006201320021987200319881979198719851981197619771975196219571969195919471953194619321942193819481936194019481955195219451951195319571954197119521963195519571946195719521946194919481947195519501951195219491958196819581977198119881979197719801992198119841989197719751974197219661972198119721975197819641974198219711980196819641972196919731958197319621965197119711976197819711985198219741986198919941986198919861989199119881986198019781972197419661973195119521949194019361931192819131905189218911877187518621853184218491846183618441832184718491859187418791876189519071912191919301930194019431950195919601977198819881997200020052013202420272026202920372038205220482043205420492055205620622058206920602050206320592058206820562054205620532052205720522043205020442034204020352037202920362025203020252024202820212015201120112014201520102011200720012002199719942005200020001988199219881983198219801982198419921989199619821980197419751985198519791988198319851992198919881990199519931999199819982003200119952001200519971997200220121999200120022009199019992007200820022007200320022002201420062007201120112005200820082005199720031998198919891980197919771965196219481944195119361924192419151909191018971896189318861885187818701874188118771877187718851890188618851898190719121908190519231928192919361942195019471944195419591954196819701976197819922004200120001995200020122009200920182017202620232026203120292035203320382032203520332029202820322032202720222027202620212015202520182017200820052008199219921992198919871996199519901985198819831985197619911995198019821994199420022000199820122005200420092006199920121997199520052009200420141997199820152010199420102002200720042006199520032002199819992006200620052005201120042009200020152006202220192008201120182007202020132006200320152014201920122007200920052003200920022000200120001998199619961980198119831970197119791969196219641958195819561958195719611962196319561964195719631964197519731974197719811979198519982006200320031999199820052015200520122010202020132017202120152027201920242017202120242036202420202029202720232029202420392038204220422029203620322045203820452050203720372049204220442034204120282039202920272021201220161995199619871991197919691975196519631965196419641963196019621958194619441945194919441949193119361950194219551950195619591951195319581956196619651978197519641966196119641975197719651967196919651973197019761967196919691973196819761969197519601964196019611954195019441940193719211916191919091904189118861880186218621853184318501829182218231817180818061812182118141828183018421859186118771875188918981904191719311939194719541959196019691980197419851981199519942000199420091998201220052006200820112015201120102016201420202021202020162012202020122024201920152019202220232009201720182017202220132004201320122012200920122011201620192022201520072018201820082010201520222021201920192023201220172025202220272025203020182028201820242019201820332024203020212028202220252033202020152016201620192018202320282008202220232010202320212017201620232015201520092011201120052012200720022008200620102012201020082004201020032014199720092004200220082005200320072007200120062008199920052001199920111998200319972002200320101997200620012009200020142006199819992005200420062004200720082019200720092004201620122015201020152010201220052017201920102012200820062015201020092003200120071999200419931991199219901987199519921989198119951976199819801986197919761981198519751975197819691974198519801978197319741973197719631966197219631961197319621959
1953195319591955195619571949194619551946194819561948193519431939194219311930191719341918192219201911190519091911190919131903190419071918191119011905191319061917190519111912191019081910191519181911191519011910191619141919191719141921191119021914190819071907191419191915192119121928191019121918192619211924192419211916192519271928193419291915192419271939193619351936193219381948194319381949194319471954195119581949195019611966196519571951196419601960195919551962195319611962196519571961196919631958196019601955196319631960197419561960195519671969196619521957195519651957195419551960196119571962196119631955195919561958195019481953196519621968196119601968196719621959197119681961197519651967196519541958195819631972196319611965195119651959195919681971196919611967196819581954197019601967195419631956196119501956196019551958195019571957195419581962196119601954195719561950195719591942194619491944195019591944193819461937193319371945194219401939193519361942193819371940194319381943194219421945195319481950194919441944194519481948195219391957195219521955195019531942195419481955194919491948194319591953194219561958195219551958195719581959195419601966195719581957195919611970195919621954196119591963196519601961196819521954195619661954196219601947195419441958195519491948194919441940194419481946194219561954194019441950195119451950194019601947196119541958195219481956195219621956195419541952196119561957196319611955195519661959195219561965195719621955196219691961196419691969197319611967195819571970195719491954195119581960196419641953195019551951195419511950195919561952196219651956195419551960195519601957196619531962195319551960197219591961194919621968196119681962196119641965197319661964195519531960196019601953195119541954195819511958195519611964195419611959195719491962196119501951195519521958195619621950194919551953195619541950195819521950195419591953195019481952194919451962195519511949195119451957195519501947195419491944194919441949195319451936194919531953195619471957195119651952194519451944194619521945194419431949194819461949195119411941195119421946194019351943194819411940193919471950193919421946193819451946195619411955194219571951196019421953195519441946195119541949194219511939194319501941194019411946194219511945194319361939193919361940193719401936192219261914191719211921191719211908190619081908190418941904190218961893189619001905191119001908190919061907190719171918191219221915192419191915192219221923192819361932192919311931194019341941193719351934192919401935193319431934193819281930193619321931192319441934194019391934194419401929192919341939194119321939192619381942192719301937192819401937194019351944192919331928192819331936194119321933194019441932193119301943194019321936193919371929193019371941193319271932193119281925193019331937192519191919192019251908191719271921192619181914191519161925191219181915191919191917192419231924192319271916192319051917190819051910191819051909190619201914191419091914190519091909192019081906191519171916191619011911191219051903190219131900189919081900190519061908190318981905190118991890189118891901188718971878189018801886187918841881189618851881187918901881187118651873187418771874187318781864186518751875187618761883187618611878187018621867186418641862186718671865184918451849185118491848183718321844183118181816181618131820181518081812180418011796180317971794179717841793178717931801180118031798180318001809180318131821181518241826182418251824182818281822182418391831182818341837184318411850184918441841184218431843184318511853185018431842185718581849185318591860184018551855185718531860186218561862185618671859184618491864185718631857185618611866186918621853185918531862185218631864184418611847185118651853186018541850185418641858185918591854185718531860185718451851183918441845184218431844184118401832183018501838183918311845184418241835184218331826183418311833182518361839183218331830182718361841184018391836183518311829182818321842183118411827184118301841184418411841184518381829181918241832183018201833182718331820182418291813181818361826
1817183418161823183118281821182318161811181318281820181218141824181018291818182118211811182018211823182218241812182018121810181618261815181418171819181518231818181218101812181518171816182118151811180918061820181018181813181318131806180718061811180517981799180617981791180117981803180017931786179117831790178517801775178217781780177117611762176017611767177117491765176417721764176817721762176617701779177517851776178217891787178617841788180017901790179317971783179018011801179917991804180917961806180018001799179618051803180718111796180218041804180617961803179817881806180317981801179618011801179917981805180617951798179618001785179717951799179617921796180817921788178917931797179917881783178917911789179017951804179217971797179017911803180418041800180318031800179718021803179418111807179918051796180218081801180217981809180518101809181217961803180718041800181718101816180818171805180418181806180518081821180718171827182218201808182018151815180918191816181718211817181618181812180718171809181118091808181618171815182118091812182118201813181718111812182218201803181318211820182218111815181318111815182118191824180418081816181218241819180818071820182118131815182418181823181318271814181718101814182018201821182318051818181018121820180618151822181918121820181618121813180918151812180618011806180718111803180818051810180018031799179318001801179617971800178317941778179917441795180117901786179017941790178117861783178417891797178717901790179117981788179017961792178617921792178917921793178817911778178717761786179517861772177517731778177417801769177417681777176517691775176717621760177317761774177117641777176717791772177117741777178517781784179117821790179317861801179517951797179517891808180518001805180517971805180018091808180518051808180918111817181018111809181818151805181618091814181118081818181218071816181618231805182618211817182118261821182118321831183518371829182718331828184018361841183918421846184418331847184718501834184918381849184618561852183518431843183818421839183918431842184418541852184618441841185118491847184218491841185318491838184118391848183718441846184918471845184318361847185618471853185318531847184318571856186318591857186118571862185918581864185518551854185918671863185318601851185618641870185818561853185718641862185718511864186418531869185418601864186518511869186218571866186218671859185718641865186118551864185218621866187018521865185218621858186518471861185018501850185118581845184218451848184418431847184318351837184118291835184118251820183518391834182218251822182418241833182418371840183518301840182818391833185118471843184518441851184818501848185918481851184118581853185218481852185418581866185718601865185918721863187418791867186718711867186518671873187518731862186118691863187218621865187218741863186418701871186818731868187518781870187418761874187218811879188318791875188218871878189218751878188118791889187718931880187918921894188318971887188518911893189619001897189818881903188918951900189118981892190018961894190819111889189819051908190118981906189518941896190718991904190318991905190218961891190518961906190819041898189918941900189019091898189718971899190519011905190619001894190119081904190019041908191119091909190119041911189719131909190419051904190519011910190519081910190219171917191519121913190419121914190419021907190919081908190219041897190519081905190319131914190219031904191619051913191019091906190819061904190319081911189919111908191519061902191119041917190519131905190319111912190919011904190819051903190319071898190418981897189318971902190718921903189318921902189018981897189818801896189718851888189318941890189418911895189618901888189618901892188618991884188318961885188918911886189018821889188518821897189619001892189018841886187818921895189518851888188918931893188318921888189319021897189518951885188718981901189118861884189518951902189719011893189318911902189718921901190519021896190819001905190619101902190719021911190119141904191219121916191919131901190919241913191219121913191919211919191119121919191519181906191519111910190819231915190919221918
1900191119121903191619091902190619121905191719131905190519091899191419131919191119041906190519041910191119161912191119121918191019041905191819211912191119061913190619061914191019031924190419141913191119131913190919111915191219111917190619021909190419021908190819081896190019021898190119051899189718951904189718991890189818931894189818901873188618951887188818811878188418861883189418781883187118831878188018771878187418791877186918721872187118561870186818671875186118591866187718681874186518711869186418721876187918741877187418841875186418671876188418601870186518691871187018791880188518791869187518821872188018761874187718851881188018781886188618881883188418771882188918811879187018761881188718771870187618841878187618701872188218771884188718911874187818791874188418831882188018811885187618801880187018811878187218751878187518821877186918771881187918731875187518821879188718791887188418771875187718831887188318851874189118811885188518851878187118881895188218811880188518771882188018871882188818731873187818761874188518741882188318721877187418751873188218721878187818781871187218721864187718661867187918691871186818711876187418651869187618771868187718711878188118761875187718741874186818751869187318761877186918781875187718751867187418711861186218621863186718681857186518661868187118601859185518691869186218701872186118631862186018601873185818631868186818691862186718621866186318581864186318561860186118541856185718521847184918531842184518481855184818461855185618591841185218481847185218431851184818471841184118381835184218421845184118361842183418431836184018431836184518421848184618461844185518431855184918511843185118401848185418581848184518571864184818511858185218591852186718671863186218491855185018581866185418531853185918541854185218541851186018491845185218451852185918511845185318521849185118411847183718391853184718451848183718441845184418391848183718351850183318501838184018401847184318421837184018451836183618381832184318311844183718351841183418441830184518361847184418441847183818471840184018361840183418311839182618411831184518351835183218411829183318331831182918361833183118461838183218371843183318431826183418321834182818271830183718261832183518321833183318371831184218361837184618451838183718341838183618311837183318391842183418361842183118351830182918411825182918351829182318361836183618321836183418311839182818321831183918351827183018251831182618251829182418211828182918291815183518231825182918241834182718151832183218211829182818191821182818271817183018271831182718251829181618311821182918301820183118261822182318241827182518221821181618211819182318281837182218271822183218311833181818351826183418321820181718181820183118221826181818261824182618191834182618301834182418211831182518391835183218301831182218211833182118201822182718291834183318361830183018281836182318291824182918231821181818171816183418201825182918091821182618201822181918201820182818231817181418251824181918141825181718191812181818261820181818241814181518191814182718161818182818271827181718141819181718241825182618221821182518191821181218181814180918171815181918101819180618191811182318131810181118191807181218011815181018131817181118161812181718151803180418121806181918171804181318131815182218091806182518121809180918121814181118131809181918201806181618101818180718061819180618041808181018091806181118091797180718141805180418121809181318171817180618261818181618091822182018191809182418131813181318151826182418201819182018151819182818141813182118191812180918191811182218141823181518201808181118121817180718081811180618121818181918201807180518101809180918141808180318211822180518141802180918071812182118101813181518191819181118121814182118061815181418101820180818151812180818141812181618071813181018091806181118131816180318131805181118091811181118081812180218071806181118011810180518111804181118111809179918071806180618111809180517991805179718061801180517961807180718041810180818091801180218121805180018101812180218101810180518101812181518151812180918011811181218001814180318051818180918111815182018041800180518141808
1811181018091803180218031797180117951803179517981791179518031792179218051804179517951793179918001799179918061796180318051805180117991801180218041798181018061798179918041811181618031810179617971803180117981805181218101797180018111802180718111805180017991793180118001802179718001789179418011792179017921792179517961792178617811795179017981796178818011793178617791791179017941792179017881786178317841786178717931792179117901789178517941795179317881786178317921795178817961792180217911796180117991805179717931793180418071806180418021789179818011798181018051791180517941793180217961802180017981795179817941802181418141803181718031796180518171819180918161816181218161806181318111817181518141812181118121805182818191817182018171807182018201816181518181822182118141815181418191809181718251822181318121817180518001805181218091805180018001804181418081822181418131814181918191815181218191821182118241816181918301818183118251836181918261815181918171825181718271819182118151818182618231818182218191823182018271815182118221827182318181820181018081814180818071813181018091812180318031809180918051803180418121805180918131800180018001813181118081800181318131815181718101805180518071814181918141813181718161816182018191813181418261822181618131821181918151818180618151817181718141807180318081803180518091804179918041792180318061791180317961810179617931804179617941803179718031806181218071813181218091816181618211815181918131826182918241829182018241821181618271828182018251831181918221822183218231828181918201813182418151815182418151822183418211820182418241837183118331825181918141827181318281821182318211818181718241824182518221824182018171829182918191820182218261827183818211825183318331835182118341818183518211830182218301826182818251838182618301828183518311829183618281821181718191837182618201829183718271825182918331824181618271827182818221827182718301834182418221823182818181830182718261827182818211825182818291824182118301820182418341831183918331834182718261824183118331827182718421830183718231825183818261840182918211830183218331834183718321825183018351829183218351829182618361817182218191817183018321831183218311832182918311832182518311833183018281820183518331819182118191828181718201821181818281818181618221824182118171831181918281829182018311832182718251826181618251821181818301820181918301823181918161826182718241822181818261818182818301832182818361835183018271822182118281840183818291827182718271833182418361823183818291839182518291831182518421830183418341835183218371830184018421839183318401840183718291831183518321835183318431829183718291843183018351835183318231833184418281831183118401834183318311827182918331826182818351833183118391835183818341827183618291829184018261824183618311834183118471835184318441842182618371837183018361836182218301822183318291831182918251826183618331836183118321828183218321830183318261837183618271833183018351832183718351827182718321833184118401836183518311841183918431832183318371848184118341829183118431842183318401848183918411828184418361841183718341833183918381832183918431835183418311831183518391835182918361830183418371831182618331829183118171811181318271818181618331817181818201819183018331812182518241818182418271820182518131817182218171824182018211826181818241820182518231832182718231826182718221824183318321829182418221834182318331824182418261825182818201826182918281829182718301821183218271834183118291836183018291824182318301831183218241825183518351835183218321837183618381839184218361843184718461837184118431837184118391844184518461844184418431842183918451836183418421834183418421837183418441832183118381827182918401827183918381825183418331835183618321823183618411841183918291824183618391828183118401833184118411838183618281830184118381825184018341837183218371836183618331840183618321839183618331833182618381826182718401837183918391837184118351837183918291840183718381841183418311837184118381841182918371834183018411834182918331834183718321830183018321834182918331843183218391840183318411839184418301832184318381831183118301846183018431829183618261833182718341829
1833183418271823182118311813182218251816181818251829182218171809181118171822181018191823181218191811181918191820182518271828181918181824182418341824182218221841182518261820183318281832182918261836182818421833183618421837183218331840183718411829182318251825182118181833183118261836182918261824183318171831181818171825182218291831181918311812182018181823181318251817181718181816182218231824182118311832182118281829182718231834183218361836183218281831182318351843184018271839184718381839183618481836183918351827184118411837183618391829184118421841183818411834183318291832183918431842183918451823184218401840184218381842182618321835184318321843184318311835184118371837184618401844184018431837183618391848183518381850183918411844183918391836184118361832184118341841184218451829183618331832182618361828183818291827183318221834183718281828182518291827182718381828183418281838183418301837184018371829183618371831183818401841184318341839184218461845183818401837183918361836184118411846184818421836183618381839183318441839184218421847182618341836182918391837183118321832183118381833182018191829182818331834181818201828182818291834182918281836182218291837182818311828183318371837183518351830183518321837182818351828183318321831183118401839183118371844184418431836184318351842183318431838183618361841184918411846184218441847183518471849184718481843183118411847183818481839183318361851184318461844184818421845184818391844184618551847183918461837185118401839184618361851185518451856184118391853184818471849183918421846184018411843184518491847184218391837184018461841184918401839183918451842184318391837184718401838184618461841184318481845183718431843184218421848183518541854185218491841183918451850184818451844185218501856186118561852184518481849185018501845185418571859185518511850184618431851184918541843184418441841184118391851185618451839184318451841184718411840184218461842185318411848185018481846184718451849185218511851186118571862185318491862185618581859185718461846184918461857186018491854185418481843185618371845184618371841184318381843183618411841183818351836183518421831183518401832184718431845183818371851184118451851185218471844185818461850185918481848184118521850184418651850185318571855185018541851185518481850185718511854185618431849185618441837183918381849183618381837184318441847184318401837183818501847184518451846183918371847183718481853184318461847184518411844184718491853185318481851183918431851184618491842186118541851184918471850184818541844185418481848185418541855185618541856186618531862186218571855186018671870185918591861186618651859186118571863187018551859186618621865186218601858186118591866186718631860185618711872186418611861186418691871186018691866187018651871187718651875187418621876187318641874186918781875187518721863187218771862187318681863186418721862186718771862186718621867186318671856185918631854185118571851185718641867184718481850185818531854184118511849184718451846185318451848183818481853184118331846184118451848184718461849185418491841184918471852185518591852185718621859186518491849184918581861185718581855184918501853184618431850185218581848184618461848184718441843184618571857184818631854185218581864185618631857185718541862187118591869186018591858186418611857186118551865186118571866186318681871186818641860186618631871186418711869187318781881188418801881187718831884187918811887189218861886189918891888190118911902189318891888190118941890190718961897189518961900189919031899190519001900189219001890188818871890189218831884189318811894188218801891188418831889188418811874187618691873188118761879186918711866187618761863187518731870187018671872187518681869185818751872186018651862186118591861185718651864187218651855185918681854186618531859185918591860185318601848185218561854184018501842185118441846184418371836183618361840182918361834182318321830182918321827182718361831183318371832182818331846184518461845185818541860187118651868187018731883187418721882187518741880188118821883187718771883188018831879187418721877187318721874187518731871187018791865187018671866
1859185618501855186118581845185018461839183818391839183918371836183018381834182418331827182918331824182318261830183518211825182818371831183018331824181918211819183118321830183218211836183118371843184218471852185318491861185018641862186718511858185618501861184718471845184918401840183618371844184118371844184418351826184118341828184018291810182518331824182818241818182518241822182018101819181118281820182018251826181918211824182918361817183118191819180918151827183018231829182918321824183318221818182918221819183318271831183418411844183618421850185918491855184718481847184418541858186118451849184918561859185118671854186318591851185118461846185918551849183418421848184218471837184018421845183018481834183218431845183518451844182718251849184418481849185818631869186118661871186118701865186418421864185718701874186918621864185018581858185218401848185618491831183518371836183618401835183718251833181918311824181018171819180818111816180918021788179517961781177917841781176217651766175817641749175517601758176417551751173417471732172817381730172817221724171417141701171217091716170316971709170716981704169116911689169116861690168616891690170117041703169917011715171417211731171917271729173717361732173617311749175017401745174717441746174617431744173617481747173817441736173517471738174117261734173817291735173217331713173617221729171717231710172017081709171017011704170617071700168817011688169317011693169216961696168716911685168916841679168916941686168416901686169116751683168516751686168516731678168316781673167516651672167316601664167116601660165316551661165416601648165316551646165616611644165316571658165016541655165916521651165516471653164016421640164116281628162416211611161416291618161116011604160915911588159415811576159415751574156315561552155015371548153715291544154815471536154015501544155115531563156415751573158115871593159315971600161016151613162116201634163616361647164916541660167216731674167816821694168616871684169416921677168016771673168016731681167516811682167816801666167216751675167516751664165616631665165016501655165416511645164616451643163716351641162616421637163016321630162416221628162416241622162216171613161516221621161116071613160316141606160816201614160416051605160816011610159715971593159715961600159515901580157915771580158015791566157015601565156015621561155715541552155615571554154215511557155315441538153615411538154015411521153615191524152715091526152315111521150515031504151314901505148614911481148414721474148314741483147714871487148014791486147714841483147314771476148614861486148514811481148414801492148414941486149714871496150614971505150915091518151715251532152615301543153415331531154215391543153915391533154515521540154715471545155715581555155115521554155715581561154715521562155915571550156015571551155815461553154915521549154715571561156415781572158315921593160415971599160116011613161015951605162016081606160716101608161316091613160916081611161216021601161016051605160516011610159416091605160315971599160115981588159215951602159015971600159215961602160315951597159815891586158215901585159015741576158315771579157415671567157115731552156315611552156415531552155515481555156515481554157015581556155115541550155715481551155215431550154615351522151815151511151315031503149414971501147914941482147314671469145814621447145314451446144614411444144514441464145714641460147114821480148314871488147714821492149014821491148914901493150814991507151415131519151715181525152315301537153815471544154315531557155715521555156715711572157015701573158515811589159015791586159515911587158515941587160115991596159416091611160216081612160116051619161416071608160516091611161116011609160716121616161816221615160816201616161416131614161116141627162716431633163716421641165916601665168016811685169416971690169616961686169216911692169616861690168416901685167816771671166916711661165516491657164416431642165016411633162716321625161715961608159515841584159215841579157415661562155815461533154215391527151815141512150615121504151915151514153015331545155015511564156515861583158515841593
1597159415841583159415931595159915951602159916121608162316251634164016511646165816531654166016471655165816491640164216551664165416531656166216511643165916491638165316621651163916441629162916321630163816341629163216281627162916381630163716421641165316541655165616681665166516681668167516651668167816621668166116571656163716401625163416131617160816001593157715891586157815911589158615921579158915881591158915961593160116041602159716081608162916321622164816371647165616621659167116781677169716911698170116961695169617051701169617111691168816891683169116911686168416661666165916481646163616481648165216531649165716551655165916501651165616511647164816461654165116561665166616671659165216671657166516631671166716761659166116651663167516671672166716671655165116371636162316191628163216201622161816211624161916241624163316301630163116411639163516501662165416671676167916751687167416811681168316921699169516961696169117041703170516951721171517201710172317071711170717061693170316861681167716691680167916731666166616711663166016481656163916481647164516491657166116551667166416671656167316761670167316681669167016811682170517021704171817261721172517341747175517481749175517591755175817681773177717841782179317981789179817931797179717991801180917991799179717951796178417801767177017641769175917641766175417671757176517671753175817651766175517541751175817511753174317451746174617361735174017381737171717171719170617081707170117031692169616911692169516881684169016951699170116971711171517151716171717031714171117031707171017051699170816941692168916831680168016841673167916731672167316641661165516561656164516611660165616611665166416961681168716971685169516921695170216891705170017021699170517021687169916851704169216941697171317121701171117121706171317171710170817001701171316991696168916971707170816991699170117011697169317041712172517291721173117381733173417471746174417581744174917471744175617751761177617711783178417911785177217901789178117871786178417911788178517751785177817781776177517581760176517641748174517441742173417431724172417301736173017221730173417251725172817371723172617321729173017361737174717411735173617451738173917381734173917331727174117321729173817461750174217441746174017521737173917471748176317531765176917561765176417701779177717721772177917841773178617901780178817851781179017901776178317891773178217721775177617681773176917561756175017421744173317151704170017001693166216621657163816341627163216221634163616271626163516261631163916291640165016511660167916691686168316811710171217161717173017321737172917321746174417401737173917341746172917331741172617241729172817171715170717201719171117051721171317031708171017061708171617141699169216911692169516901677166416601657165016401649165316561645165616611654165816561661166116661666167316761685169017001713172217281726174417381741175217591756175317371743174917411734172117171717171317141715170717011696170816971689168316991697170217041703170017071700170216971710170617011714170617041701170117161714171217091723171817171722172017101719172017141717171017081701171717091716172317281719172717281728173217311729174517501751174817471764175317591757176417511758173917391728172617271709170317131697169617011703169717031703169716931695168816861691167616821663167016661665165316461643164016411647164516391639163716501641165616501657165116591659166016651674167716681676166816791678168216791675165316531659164916471649163716371627161716091610159515851584157815691574157615711568157615751585158315821593158415811584157915951592158715981601160516131614162816271638164916451651165516501644165216581649165116501642165316451650165516541662167216801672168916771681168416911694169816841690168616631669165116611645164516431644165316451643164816401646163816411650164916481653165216441648165216501664166616551677168716801688170316981710171917281729172217231734173917361744173217411731174117411737174517381739173917301731172317321739173517381734173017351746174717511753175417551767177217841777177617791791178318011806180418001801179918041810178917951793178917931794
1789179517851784177217761772177417711773176217611767175917751756176017631771177717671761177117751784178117741798179018021806180017971794180517931799178617881797178517861782178717841792180017871785178617761768176717611770176917691765176917591778177517631770176717411752174917481741174317421742174717561743175117441744174117501750175017621749176017581773176417731776178317971803179018101802180718141813181218211815180318091818181418121801179818061791178917821789178117891783177417741785178017741785178717931806182918371843185618701878187318821893189718871901189719031882189118821881187318751863185518491846183218321835184518351826183818271834184818581856186918601870188018741881187918891885189718951904191119081904191319171920192119231921191119241923192119181919191319111907189619161909188918931892189118801895188118841862185818571859186018561859185218611842184918601861187618791877187818921897190018961917192619221924191819171922192619331919193319241933194219441948196119471946196019651951196219621957195419611968196019611958195219451943194019491946194119291925193019251928193819281937193719281942194319371934192819281927191719271931192619121925191719241931192819211926193119301935192119341935193319431941192619401943194619341938194819471944195019481948194919451954195519571955194319481943193919381943193619321934191919091920190819011904188418741885187718681850185418401839183118271818180917981798180218151828183518251833183718421831184718561857185918661875187618831887188918911893190519041900190419041907190019021907189618951889188118801890187918741868186118501852185118461846184218561848184518451850184418461853186418691871187418751884187918871884187818881874187118701868185618701861185318551854184318491826183118291814182618271826181918321847184218401842183118321833183318291829183518331839183918561839185418441844184618331838184518461841183618371837183718421828182918331839182618251828183318351830183818491855186418761880187918951893190419011919192819341932194519421949194519391952194719421941194619501945193819411934194219371937192719201926193219251912191319111903190619011905190818941900189318871890188818851879189118841882188518871885187218811872188318821875187018811878186518621866187218711868186718661864185018531853185918591854185818611857186518591862186118551859185118531861184518391847183818391831183018171817181918101807179517871791179117821781177017781769176917621776175817701765177217721764176417731773176617691786178117731791178217801800180018021792179418081798180317941808180318031804179417981796180117941784178717871789179617921797179618101809180517991800180518121803180717971801179317901794179618001790178517831792177717731783177217831770176617681775177517751776178317811783177517681783178717761775178017831780178817851776176917671775176717571748175617591757175917571751173817491748175117481761176217691773176917781773178617841779178617831796178417931795179317891789178617901798179517961798180518031810180918171824182318121821181818171824182918221820183218261823182318321825183018241844183418391836184418391844183018401826184218291836183318311835182818391832184118421840183718451837184018321841183318491839184918511854185218501851184718581851186218591861186518551850185318541851186018581855186518681859186418601863186818661862186718601870186718731873187118701862187718661867186518711860186118581864185018541862185918511861185818591850186318471848185218531851185518561853185018561859184918611852185418601854185118591861186018501857186818591852184818511860185218641852186218611845184618571853184118491849185118441857183718431844184918481846184718461850186718521863186218601857187418751870185918651864187118721869187118741870188418821886187718811889188618841885188218881884189518951898189418971891190318941899188718971883189618851892187818901878186518721859185118481849185118431845184018441834183318391842183418371840185018461854185318661856186218561872186618641878187818721871187818751880187818801881188218921883187918941892188318951892189019031891190519011905190718921895190319061907
1907190319011903189419071891190519091902189819021903189919021908189718881898191019051909190119041901190019121894190519131904190819151907189418971894190918971903190619061892189619031899190019001913189919051909190919061915190919151921191919161916192319221924192419251920192419351928193019341922193419401929193419421941193519411930193919391939194219351945194319521940195219501948194719511950195519511949195419611949195419691960196419711968196919581958197019661968196619721969196719691967196919721978197219861968196919711977198619791974197719811982197819871973198819781983198919921983197919871976198419961991199220022002198620001992200420062006199619952011200320072000201520062017201820072001200720172020201720132013202120222022201120192024202020312018203120242029202820302023202320232030201920302023201720312032203320302033203120222031202720192029202520292021201920202030201820222025202420342017203720232026202520192033203920272033203720402029203320382035204020412051204720532056204820622043205920592064205220522054206420612054206420532060205720612068206320602074206020562072207620682072207620692078207220762073207020742068207020692080207720802081208420682070208420812085207320782082207820692081207320682079207120752077207620802077208620912091208620802089207820772088208620852083209120902087209320892086209520882090208520862092208720882083208020882080207620832080208020802081208620842086207520842082207420832074207220852075208220882078208620832077208420872075207120892089208020912085209020812079209620882085209020832083208920822078208820772076208820802082208220802083208220772078207820842080208320752066207120652067207320802069207120692063205920672056206220562065206120522053204820612059205720502048205220542053205220492045205620402039204120452030204320242026203320252024203020262029202320252016201420262020200720182012201420102012201020032010200820012002200319951991198819941989199419791991198119871968197519751974198219801969196919811963197319721974196819831971198719911981198619861987199419942000199719971990199620111998200520032009201620042009200520062002201520082011201420092008199820052011199920082007201320132010201020062003200520032011201120022000200919972008200220102006201120022006199519942001200920032003199819991994199519951996199719912007199519941993199320021987199619831990198819901998198219901983199119881994198719821991198419861992197319891983198219761978198119791982198019861979198519851972198119821972198419741985197719891976198019771980198219761982198219791976198619821986197719741989197819821981197819881987198119801978197819771971198019851975197519751983197719811981197919731970197719711971197119621969196519721973195619631966196519571971197119541956196519601963195919511948195819481944194219481947194319491938193119321926192719241931192319231920192919281918191119251923191719171912191519181914191319241926192319251920192719251931193419331927193919331928194019351931193919441933193419391941194519481939194419431933193819321940193119251929192619341928193919181925191919211925191919271915192319291926193619231924192819311922192119281921192519231930192319311928192519291940193119381933194019411932193619441949194519541944195319601949195519611957194819581958194719581954196819731963196419741970196819791970197619741974197519801979198119791973198619881997199019791982198919831996199219911990198919931995199719911990200220051987200220012006200220052009201019992005200920012008201020032016200320152011200720102004201120162010201420202019201720182019201420232021202820222019201520192025202020132021203220162030202620222027202720182017202220302027202020252032201920212024202520312019203220252020202120282035203320202028202420332029203320272027202720332036202820362031203820272037204220332039203620412027203020402033203520372050203620412038204320412043204120462036204220412035202920302043203120292039204020392042204020302044203920382038203620372048204320442028203820402045203720352041204220412038203920442048203920452041204620392048203520352042204920462039204320592040204420492051205520512046
2050205020422042205920412055204020502056206020412047204420442041203520482044204520502053204520402049204820452049205220512042203620512046203820482047203920422048205720452048203920392046204520502049204120432045205820522044203920562051204820482050203720422049204720602050204820412056205320552049205720612053205220572057204820502046205620552048204820502058205820602054205220652052205520582050205320622062205820642057205720532063205820512062206120532065205420692073206920692076207320762067207620712085207820872072207320532085207620772065205820762073206520752069208220832082207620712064207020782071208020682075208020762070207820762061207120732075207620702081207420802088208220852078208120942075209120942081207920912090208120812089208520832103209620932095208721022101209220902087208520902081208420902082208520952089209120942102209120952086210020982096209020952093209320992101209520952101209320962102210320922099209521052100210121102099210320972088211020972097209820952100211221042100210321042106210521062102210420942108209721082106209620952097209620992105209621002092209321022091209520862091209420842094208820902088208520942100208620762088209320812089208820842089207820822081208620922087209920832086210320972089209421052090209321052096209921052094210420992097210620992109210320922096210421072105209720992101209621092094209721122090208720952093209620872085209120862095208420902093209120872091209120812088208620902092207620932091208920882091208220932089208820872091208420922093208920812081209020882081208620882088208420812092209120892084208420782078207420782070207820702072207720812077207220792073207420752077208420632077207620702064207020732075208020742076207120752080208320802078207420922080208420812078207820832089208320812083208520822089209320832080208720782089209320872076209620962081208320772087209120872090208320842088208520882086208620862081209620822097208720882092208820962084208320882079209020852078207720822090208420812091207720872088209320872096209220892097208920882083209120842080208320842078209120722088209220822084208020762087207820782083208120802077206520832081207320762083207520802070206120682073206920712065207720652064206420642066206120692069206520692057206120682061206220672054205720622061206020682066206920532050206920632069206020682067206920582075206520632063206620592072206520652068207420612073206920662069206020622066207220652065207420752068206820662071206520632068206420662057206120612062206120512059205720542059205320542041205920542047205820522055205620482046204820592057204320562054205220572054205320482053205120572052204520572056204520452052204520522045205020532043204320402043204820482049204420472039204320502047205820442055204520542042205220422046204420542049203920542055204520402054204320432046205220412054204820442041205720452052204820482051204820502053204620552054205020532052204420492051204320462043204920472042204120412042203420462039205220452035203320362042204220482034203520462034203320492037204420312034203720422036203920342038203020382038203720332030203620352035203920332027203620312036203020372035203420382026202920352028203520312040203120302035203620292036202420382041202720342035203820352029203520252034203720262027202820292031202820342027202720252031202120262022202820262031202020222031201520162023202320212020201920262013200820132006201420092001200319991998199919961996199419961996199019931999198819831995198819881986199219891988199019991994199819991995199219991995199720032000200119932005200120092012201420152011200820082005201820042003201920182021201520192007201020172018201920262010200920162015202020102018201220092013201620182020200120152009201020142015200620022010201320052007200619992008200820112012201120032007200620022005200620041998201219971997199420012003199519942000200619961998199719951998200119981997199519901999199819881997199620031998199319951996200219921995199519962005198819981997198819931989199019871984198319901993197919801986198319841987198619841987198719841982198719851980198519871983199419891990198019851975197919821991198519801993199319941982
1980198319891991198519811991198519821977197819781976199619861983198519711981199519851982198119731981198219861970197519701981196919831972197119711971198019651970197519701979197819821981197619821979197519731965197019701971197519681967196019611964195519611962195919591947196119461947194619391940193119371931193219381939194619311937193619391930193419351940194419381949194919411955194119501946194219481940194219561946195319491942195119491944194819631957195419591944195819551951196019531950195319591962195619601946195519541965196319651943195119551948194619621959194919591962195219571958195719441938195119401946195519521957194919461937194619471942195219491950194719571949194519431939195019401941194119421949194319431952194219481939194019491943194019401941194819411945194519481942195619431945194219401941192719251936192619231927192719271935192919361923192519271925193019211925191519291919192419261915191919171912192219291935192319231925191719311928192919211929192519261935193119251934192919311937193519401933193719331938193019331937194119451930193219341933192719291935193919261928192919411933193219321925192119251925193519241927192119311926192619391934193419291937192919311922193919331935192619261933193619311925193519251938193419301936193519221935192419281929193119241924192719271922192619301933192819321931192419191926191719191916192119241921191819101912191719071911191219211919191319241913191919151913190319211916192219111906190519161913191119141909190719071913190519121914190219081904189719051909190418931905189319001897189318921886189518831884188118801878188918821879188418931883188419011899190318991904189918921894189819011897190619011905189019081908190819001903190219001900190619081913190919161904190819161910190519101905191119071910190319101907190819131916191019131905191219091908191019081913191519081917192219201914191019081899190819001913189519001912190619091902190119011906189819031901190718981911190418961909190719031910190719001899189319011899189618971897190719051899189719081898191319031901190519111901190418991906190519151914190718961901189819011899189819111905190218961907190518921901189619031908190019001899190418921901189419091900189518941898189018961886189618891899189118871879189418811891189518861885188918851890189318831880188618891886188618881892188218891881188618871885187818731884187618781876187818661874187218741870187318791870187018661873187218741864186918671873186718631870187718661871187718831881187718721881188018771870187418691878187718821881187818911885188118891891188918871895189318851894189018861889189518951887189618931887189018921896188618931888188718911889188718811883188418901893188318891890189418821896188418951893188618871891188318881888189218881876188518911878188218891889187518831893188318891887188318851895188218971887187918831883189518941888188018851889189218811874187618941886188118851881188118811888188718851874187818811875188318931886187818761874187718731868187318741867188018781877187718831885187418801877187618761887187818771875188118771885188718891890187218851882188118861883188018801881187418781879187518821880188518831885188618721875187118681868187018711870187318761866187818661873185718621873187518731866187018651868186218631869186018581862186218691861186618581860186618611863186018681864186418541853186518611860186418641855185918611845186018571849185918551851185318511856185418481853185418551853185318531851185318531847184918501859185818591855186018581857185618611854185418501853185318611863185618571862186818661869186518651856186218631873187218621862187118681860186918691865185618661862186018731861186018711863186718631865186118681861186718681865186418631865185718651868185918611858185618701859186518501861186518631847185518541859186018641860185918521863185818501855185518651861185218581863186018601873186118621862185318651855185818541867185918611871186018631868186718671861186418631856186018641864185818621860186718591864186518631863185118581855185318531863185718591857186518731857187118651860185918551857185918631856185718551863185718611855186518721861
1863186218641861186418671865186818681851185418611851185518551856185718571858185618551865185218531853184218441844185518491858185318571858185318481847184018401844184518451839184618551843184618431843184518411847183218361836184318311841184618331834183618251833183418411833183218331824182918341829183218311829183118361842182518441832184018361832183218341836184218431840183518271831182918251830184218361835183218321835183818321837183618371829182718341837183118461844184018381836184218501837184918421840184518511836184718501843185618491832184118511856185418421844184718451842185218521847184618421843183918331837184618461843183418461829184518411844183618381842183618441841183818351832184618321834184618491831183218361844183718391841183518381846184018371843185318411849184518471849185918521852185118361847184618441844185018501849185218351837184018421851184418371841184818431844185018461849184318401846183718511840184718351841184718371848183818441840183918471852184018381847184418461847184618441848184918521845184518581848184818451849185618561841185518501848185318511845184018431848184618451844183718451852184418461849184718391847183618541840184618421844184118411839183918501847184318481847184518551846184018451848184218471843184418491851184318451840183918441841184118341845184918441840184318531842184418381827184418441835184518351837184218371834183318341833182718341839183218321833182918371837183218291836183918341838184318271842182918351825183918421831183918361838183418281830183918351844184418311842183818501832184018431839183418391835184318441836184518431845184318431847184318421839184618391843184618411834183018451834184118381838183218351827184418421832182718341833183118361829183518341831184018351827183718351835184318421842184718351832183218391837184518401839183418371836183118301834183918421846184018361838184118401845183818331843183618321842183118331834184518391841183518431841183218411833184518381839183818401840184218341837183218381844183218401839183918371842184518441847183718431849184418411846184718421840184318381843183718381840184418421837184518471849184518391845184718481848184818501848184118471855185318411855184318351842183718451835184218411846184318461838183218431845183518331836184418361834184218391848183818321834183018421833182818351832183518321832182918381840183918281833183418311838182818381842182718331831183218341834182918371843183418371845184218471842183718341854184018451843184718441846185418451851184218441841183318511849185118461847185518501854185018531846184518461848185018511846185618501839185618431841185018391856184118371846183618511838185218521840184518431844185018431851184118451845185018531847184018411843183518461847183718431838183318361842183918371840183618401836183718451835184918411832183718511848184118411846183918461840184418501854184518351846185018401844184918381840184118531847185018381845184318461839184818561849184918481843185618421844183318561839184118351848183918381849184518381836183818381839183118391837184718441836184318391845183918471837184818401841184618451852185218551852185718461853185818551857185118561857186218521847184418531847185518561853185118461851186118451844184918431844185318471850184318481836184818441847184018401849184318501849184118511838184218501841184118541843185718491847184118461841184818451846184918461851185018481847184018461836183718351837184218441832183518361834183118391839184518411838183718381835184318311831184218471836184218321838183718291842183318361834183618381836183718351850184218431849185118501840184318461849184518441840184018511845184518491839184518511845184918491847184518431844184818511856183718381849185018501848185218431839184118451841184818381842184418451836184218431838184718371846184318361835183118331839183418371837182418411824183318271833183618321832183418231824181918261828182518291828184018281828182818311838184418421837182918301845183718341834183418441840184218341837183118381844183518471842185018291834183618411838183518401841184118441847184718381844184818401836184318381850184218391846183718441846184718511848
1842185018481853184118491845185118461853184618421842183418451848183618411836183318411849183818331836184218341837184118351834183918421835183318341837183718401835184618441845184718331844183618441843183318321840184518351832183618501841184118401836183718381834183418301836184318411837183818411833183818361840183718321839183418391830184018321833183218301841183818211824183518271831182618251826182818311825183118341816182418191818182918341819182118191827181918141819182618181831182918191836183218231825182518311813182618231821182018251820183518191828182018201818182518241809182118241820181918191812182218161819181918171821181018151801181918171809180818041803180618101813181718091810181318161810180518021810179618151811180918081805181318121822181818131825182918241822182018241817182918201838181718321823181818321839182318281833183218291831182818321828183018281819183118191839183118251831182118301830182318241830181918221822181518331831181918281824183118221830182618171830182118181826183118201828182518231821181918281822181718231823181818321824182918201835182218211826182518221829183518311826182218311827182618221825182618311832182318251824182418321824182618301829183818271822183318321824182418351826183118281835182518291827183918281826183118291846183118351835183518301834183618341831182618361826184218341824183818431827183618251833183018391832182818371836183918341837183818271828182218261831183218241830182918241827182718331833183518241830182118181825181918311829181818181828183018241823182518171820182818131822182618211823181918211817182618301817182618261820181618151822181618211825182018131822182118141815181918191816181418141818182118241816182818231820182218241816181918191809182118231820183218211825182318241835182118251826182118251830181818211815182918221821182118221821181818231830181418231831181718291813183018231819183218301833182818161830182818301828181918281825181318221810182118201825182918211827181318201826182418201821182018191819182218251823182518231825182418251829182518251816181418261820183018141814182418271821182218251817181918101815182118191821182018151821181718201825182218171819181918241815181118261816181818241824182118221812181218171816182118211815182218251820182018321825182618271818182918281829182718271824182518201828181718231821182718241831183718271822182518331832182418241830183218311833182718301829182518251825183118241826182518311827183118311831182818311825182018201824182218151824182718151824182918211829182618261828182618311819182018291826182918281827182418291824182818221826181518281835182518401822182618131829182518271825182218261821182118221828181918271823181518221821181518211820181918271810182218111820181718181818181218211826181818151808181518101810181918151812181518191810181718141813180618081814180418141809181118031808180418141807181718181813180618231807181118111817180618091809181418151809180818081812181418091821181018121819180318181813181118211815180618161813180218221811180618151815180818151814181918151819181418161818180818181816181718141820181418121809181218271820181718211827182718201829183018261824182918201831182918221822182518261829183318161820181618261823182818201824182818201824182018221825181518201823183018251812182018121825181818181811181318141821182218171819182618251815183018141829183318221817182118251824182518231823182418191823181518171828183018371830182618231820182818271822181718201822182418281830182718311820181518141827182018221818181518241822182118181817181818091823182318121821181918251817181518221815182418161812181218221827181318171819182518211828182818211820181618171829181618251817182918261829182718191818182218241821181518251821182118211818182518241824181418241818181518191812182618171816181918121810181318181813180818051809181718171810181018131821181918101817181518101809181718081826182018191809181718241813181818131818181018131813181318161818181318161814182018151817181718131816181418061824182318101813180918171807181418071819181618211808181618151817180918181806180018051821181418091816181918081812181218191807181618151823182418161809
1821182618241816181118171807181818241819182018271819182018251824181618281826183018331825181918231819182218281825182218191826181718211825181418271825181918231820181218151821182218161820181318161824183018211824181918191815181718231836183118251824182418191821183018271813182718271821182018171809183018211818182118251821181318161824181518091812181618111815182617951815181718071813180418051816181118151819180918181820182218091817182118151820181418251820180718111823181318141826182118241828182718191822182018191820183118301825181718221821182518161827182218211820182418151824183318171820182118261824181518111829182518191806182718151819182118141813180918091811181618201817182318271807181118171824182318241824181318231824181918271823182418091827182418281819182118241821182118181821182518241819182318191817181418081811181018131817181018091810181418141816180918121813180018191811180318081806180618151813180318071814180618041803180518061801180118041799180017981786179318021797178617891783179517871789179117901789179517851799179718061795179917941793180117971801180918131811181718111806181118121811181218181819181618091821181718201816181218111822182618191825181918221828182918291820182718231821182018251829182718231827182318251827182518341830183318301824181718241829182318231823181918261821182018211819183018251826182818311832182418321823181918291828182418241827182518291822182418271814182418171822182418231821181918191819182418221822181818171815182018171825182118211816181518251818182018311824182918241827181818281827182718331821182718251824183418291830182818281828183218321836182518231829182618311836182718281822182518261819183318291831182018181826181718141828181718231820181818191812181918221825182518231813181818141806181918151826181618221814181818211815181618081813182218221814181018141822181718251814182018221827182218291822182518201817181818201812181718181817181518161818181418191816181618121809181918071812180518181806180618121815180018031814180918001806179718021802179517981794180018071794180318021791180017991807179618081800179918021798180517921801179618011805179717901799180218041805180618071802180918161808181518111806180618091811181118061818180818101815181718221818181218081813181618161806181518191828182618131823182018221821183018251829183618321822182518181837182418371832182518311838183618281835183218251828183118251822183418301826183518331829182818311825183418281820182218221824181418281819182518181827181818161818182118211824181918121815182418221826181718171819182218251828181718331824183218261829182818321823183018321835183118341833183518361837182818311834182718371832183918421831183418381844183518291837184318281829182818351826183818261824183518361833183018291828182418291832183018361833182818241825183218271831183018281827183218171833183418251827182318311827183018311821183218331833183918251838183318411837183018271831183318311831183718261831183718311841182918331831183118401823182718301833182218301833183118371835182518321827183318261833182918251825182818241821182718261832182318281825182018211829182018161819182318261820182518201825182418281817182118231827181018141807181918141809180918181806181918101811181118221819182218271820182718291826182018211829182318171813183118161832181818321826182718311828182818241836183618261841183718251828183718421836184218401830183418311843183418411845183318361842184118381852184018371833183418331834183618491842183218351834184218371844183818341832183218281834183418291825182518321830183618241839182818271838183518381834182518351827183318291829183418391832183818331836183218321839184318391834184118391836183618451835183918391840183618431841183618361846183018321835183618341837182918411838184218311841182918311833183618351827182918201824181918271818182318291826182518261829182918291836183718321835183318261838183618331832182618331834183218321831183118371834184118381829183418411836183718361834183418341828182118371832184018291831183518331828183018291827183418321834182718251824182818261829182618231823183018251827182918331818182318251828182418261830183018261822
1823182418241825181618181831182418261826182518241818182418211824182418231825182418141825182218071824181318281815181818241817181518131824182518191828181918291817182918251819182118291817182318291824181918241821183418321825183218221819182818221823182518231819182418291833182618241820183218271828183618281836182718411829182418301826182018221816182118261832182118231830181418241824182518291834182018241819182818321820182318391818181118281818181918291821183018311828183718271830183218371837183018371834183418331841184218331837184218271828183518441823182218441845183318431839183218401830184518381838184718301832183218351828183718441828184118271818182218241839182018321831182618361819182118291832182718191817183118171812182818271831182418241826182618301831183518281826182318381822183518311836182918331829183118331828183918291829183718301831183718241829182518321827183718221829181418261817182718291826182818201825182318321816182718261833183218251826181918281824182318331826182218261832182518291836182618221823182918301821182618311826182518251824182918201833183418371825183318201832183418251831183918221833182518321834183318221826182118241819182818231816181418231816182418241820182618281819182418181821181918311829182518271819182518271830182918321828182118201824183118311821182318321837182918281836182618271819182918201821182718231834182418291830182518211828182318311817182418201829182518301819181818261827183118251832182418321833181818271821182918341828182718261827183118381834183518381827183918351830183518441845183618311829184318411841183718401839183918431837183918351836184918301844184618451852184218431837184318471836184818441836184218371848183318411836183818331847183518321837183518451832184518271832183718471844183818371840182918351841184218421845183518391848184218441836184618441841183818501844184818471843184318521851184218441832184618431850183818521848183618411837184418421839183218371838183718421845184518411843184118371837183918371842183218311839183318361835184118351843183518341832185118371843183418381837182618381845182818311835184018311831183818361826183318411826183318411831183518401833183618361839183218381838183318291831183618271828183118281826182818331832183118271828181918311824182518191831182618231827182718241829182418221830183518261828182218271829183018261826182318251827182518301818182818241829182118321822182218221827181618271821182318241826181918261818182018241813182318201808182318181822181618131817181018191826181418221822181618141822181818301829182118261831181918261836182918311826182718321828183818291821182418231828183518271836182518261830183118271835183918301831183718301836183618361839183018321839182218351847182918401841182718241840183418331817182018331832183318321838183518221831183418221825183318271834182118221832183218271830183318231831183718371842182718341832183318351836183418381834182418391831183318341840184118331839183918361830183618451828183718491837183218371843182718321832184318331841183018391831183018371832183118361837183518351833183018321830182918361833183518401840183518471842183918311828183418441827183518421836183918371845184018291838183518331835184618401831183318411829183618281832182418371841183518211828182818241827183318301830182418321832182818291827182718341827182718251828182018161821182318251824181718171819181518241822181618281822182818221823183518231829182918301822183118351833182418271823181918331822183718151819182118351824182918291833182418321820182118121827181518191817181918161826182218211821182218181819182018121813181218171815182018191833182518271819182718301833182018321820183418211831182518381827183218251817182818361828183018301829183518361839182318311834182418211823182118291822182318291821181718311824182618241828183018251825182318301824182318221827182618211829182818321830183118281837183418271819183618381836183418321837183718341833184218431833183218371835183318391831184118321840184218391829183218371835183318261840182818321828183418391839182818271834182618331832182618351826183418351827182418381829182818291830183118281821183118291836
1835182918291833183318351827184018311831182618311830183318311824183018441833182918291833183418221838184418361831183618431838183718441828184018341840183118301825182218361829182618331835183118311838183718221830183618241826182918361836183218281820183418221828182118211827181018251822181918231824182018301814182518271820181818201824182018191812181218171813181618171821181418191822181518071804180818081804181318021809180918011806180018021805181118041813179918121806181518181819181718241827181718191812183518291832183318231820184118291817183218331826184018311820183818331833183118271822182718301833183018251825182718151823183118331824182518241824183018291825182918301827182518251820182118251816181918251827181718151818181618141828181418211827181718191829181918111822182018161836182418181818182018291823183018271831181818231822182918221830183518311833182418311821183818261836182318311835183018301831183118271828182818241827182318251827182218311832182418331828182718211820182118231831182418181824183218381824182918291823182318251835183518301834182818301828183218311831183918291829183318351833183818371840183318281824182918231830182818221827182918321828182118251834182318291819182118291821182718291825182418231823183118161819181518231821182818231821181518261826182418221826183118301830182718201828182418291831183218231826182318251829182918291833183518241824181818291826182218181832182118291826182418211818181418241824182218201820182518201824182218241814182418251820181718161817182518251811181718251819181918201821182418291827181718251822182118331830182218271820182818211826182218271827182918351825182918251836183118281831182118271821182718281825183118271825182718251825182618291824182718221833182618201822182718241831182518241835182918211828183018291826183118311828183218241828182918251838182418271829183818291828182118251824182418311833182118251825182718211827182718191817182618301825182518161825182118241819182118201820181818191820182918151826181718191824182418121824182018231824181718191813182518131823182418111819182418211817181618161829182118181822181018081811182018121818181018141813182418191825181618111824182618181824181918291823182518121822182018281815182018261832181618161817182118221819181218171821182218251817182318101814182518151822183118141822181618301820182718211823181618191821181718221815182318261827182318201828183218241832182418221833182318261814182618121828181918241816182118171821183118131817182318251816182218241822181318271814182218271819181618251822182918261826181418251821182518291831182418281825181818331817181918221818182818231816182218191818181918301817182318161816182418261826182818211826182418251826181918161815181718261818182318261815182318161812181518131806180918131814181418041814181718211812182318121820181618111811181618211813181418161821182018261818182918311827182718231839181918241828183218321831183718411825183618351831184018371827183718281832183818291838183918361841183818311824182518321833183118301830183618311823183018331820183218341832184118201829183018281836183018331834182118251833183318281832183818291828183118291825183218251824183818331823183518341834183918341839182618291834182618251829183618241831182718351819182418351821183318231827183118341829183518331833183118281825182918261834183118231833182818331836182218221827182618141830182818151827182418261819183018271816181718221815182218181818182418181819181518101819182318211826181718151824182618241815182318181825182418211819182218191827182618221814181818271817180718181824182718211819181918141820182618231827182418231818182118201821182818171831183218171830182418271828182718321832183118281827182718331824183918371830183218361834183618251844183318301825183218371826183218251834182818261826182618271832181918181827183418321825183018281829182218231826183418231832182618341829182318261829183518371836184118351838183618351825182718421840183118421836183718331830183918421830183718291831182518391838183418341830183418301835182418351824182718321833182518311826182518241820182818271829183518221836182918261823183818341829
1835184218301827183218291823183418281829182418351830183518291820183618231832182618291837183718231833183018301829183618251832182918371822182118351818181418231820181818201832182618171826182218261825181718131827181618181816181718181826181618271819180818111816180818211820181018151814182018201816182418161828182218231816181618201817181818291815181918181829181618241826182118191825182418191817181618211819181118121814181718121814181318141816179718181822180918271813181418091818180718101817181318201813181318201817181518241825182718131814181218161811182718211813181618121814181518141811181818181806182218151821181318161807181918151816182518231816182618201808181918131813182018211819181118131813181618211819181818171816181818161819181718091815182318201817183218311823182418271817181718281824182018181819181918291829183018181820182818251827182118201830183518181826183418331830183718251829182018271826182418261824182218211829182518081820182018241823182118271816182518161829182418291821182918281826183318261828182118331828182218261827182718321826182718361829183118301828182718331827183318301842182318371830183318391833182018311828183018371831183318331833183018211819183418211821183418251826181718231820182118231811181818241819182418241827181418211822182018151817182418251807181818151823181918171812181118181809181318111811181618121807181218131805180218051799181218021808180618091803182018181805181318181809180918061805181418191810181618201819180518101817181318211820181918201819181818241825182018261831182718261819182818181828182418231833183318251825183318241830183118251825182618331835183218361828182918221824183318361822182418311823182418241838182418251834181618281828182518251823182818271832182718181819182018291822182518231820182118351822183418311821183118191826183218231833182718311826182518371831183418291828182918311828182718311839182918251833182418331834183818291827183018281831183318281830183218341830183118301828182318271835183018341823182118241826183118221835183018221830182918241829183318381830183218241829182418221835182618301825183018331825182518291822183018221826182918251825183018201830183318191834181918231824182518291829182718311832181718211823182318241824182918211822183118301820182318161817182418251826182518201814182718271827182518271823182118201814182118171811182618131827182218241812182118191812182918121817182418191823181218221820181818231823182418211827182618201817182618181816182118211822182218281820182518321833182918321821183318271834183418311826183318261835182418301829183718291820182518221826182218231816182518221828183318211826182918161826182018301824182618201820183218241828181718281819182718251817182318251824182918211825182618271826182618231827181818241821182518281820182518161823181818181815182318201833181918251817183318321818182118261824182118201833182918271821183018291828183218391830182918321829182718261835183818271832183218191825183518291831183318271830182918281825183318311833182818361831182318261817182518211830182918321828183418271829183018321825183318291829182818291825182318351834183418251827183718271828181918221829182518281834182318281822182518211831182518281817183018241831183318341833182418181819182418261828183518341826181918311823181718221819182218201818182818251825181518331821182718131830181518181820182018141821181718251815182918261819181818181822182518241826182018241829182718261824182018171827182518291824182218191821182018281827182218241838182518271816182118171822181818221814181918091818182018241820181718151810181118201807180618121810181018051816181518171820181218151819181118091820180718071828182518241821181518241824181818261827182018231833183118261836182918361825181918171826182818341831182118201821182118281820182418231814182218221826181818241819181618211821182118261821181318241828181718211815182018181811180918141820180918121814182118161816181518091821182218131814181118121816182118211820182518161824181518291819182118191827182118241827182718241827182518201816182618211828182018211828182518101826181518241822183218191822182618221821182418241824
