1866186318631861185718531851185118401836183618371827182118221815182018301838183118361831184218361834183518501861185818551841183918321839184418461848184318531850184818481847184418431850184918511850184518551854185318561851185318551850185418571856186018581852184718431843183418291825182618201826182718261828183718381834183518411841183918361834183518321826182518381836184318431848185018481837184018321845183418401840184318471848185318461855184318421846184318401837183818311836183218391838184918541861186418631861185418451840184318411837183618241818181218121805181018111816183218301831184018421839184518431844184218401839183218381831184318441844184118451841185318461856185518531843185418571859185718541859185818541850185318481842183418371836182618341832183018231818180918101813181118141818181818251837183718341834183318391838184418451843184418411844184118361838183718291816181718231818182018371837182918411839184418451852185018491849183518371836183418411840183718421838184218381838183518311834183318341832182118161810180118051810181118271829183318281832182918331827183118341837183918331835183218311835183018371830183118351834183718301833183318331840184718531861186818731870186118521849184318471847184318401844184118431836183418401834183318251827182918241814182118221826181918321829183018291831182318281826181918251826182718241831182818301829183218331822183118261843183418411840184118391840184218371835183418371841183518391846184718461860184718471836184418371830183718441842184018351833183118341838183718421841184218471843183418271820181118141813181118241823182518281829182818291831183918311831183318281828182118161820181818261831183818371842184018451852184818541851184618491852184718451844184818501846183618311836183418391836183818381825183718441844184218431840183718321839183318361836183718431831184218431843184018341837183618331835182618261827181918241819181718211821182018211824182718251832183118291825182418291822183018291826183718371843183718441838183718381840183918421841183718381834184118381842184618441850183318431840183018471844184618311844184218201824183018231823181818251833183418311829182618141836183118381831183118221830181918221824182818201813181718121811181018191826182918251824181318081795178117741771177317761786179017991796178817851783177017621767177717811780176817621755174217301736174917621774178818081804181118091813182018181814181118151821182618251825182818271830183418251820182718171822181518171806180818081806180818101811180417961795180118001807182618251834183218271838184118461849185618531852185918671868186418511852185218491848184218391832183718321824184018421832183418311828182218181815181518181821182318271842183718521850185018491857183918331829182418311833183118381835183218301822182518221844185218611864185918671867186818661868186618661869186818691868186318661862185418561851184718361828182018241819182118191817181618091809181618151809181518211828183718331837184218381835183318341831182918351840183518431861186218611851185918641864186918661869185918611858185218581850186018521848185618711874188618741872186018611857185018501853184918471849185118531851185718491849184118391836182918281833183118261834183018311828183118271836184618511847184518451837183418301827182518171812180418071805180517971798178417711752173717281735175417711778179218011811181718261837184518411836184218411836184118321831181918091794178917781771178117921805181218171821182418241826183118271828182818241821182118321832183518371833183218341846185218561873188018771868186318581861186218661859185218521853184318501856186518741871186818631858184618471844183318281825182418341825183618451839184018361847184218471855185018451835183318201813180418061810180318081817182118251831183418321843183518401838183218341836183218311838183918451845184318401844185018511851186018551852185418591855185618601862186218561852184918511847184018421841183318331824181117951786177617611759177317901799180918081818182318211828183318361833184318391849184718481856185518611878188418841877186418631866185918661861186718681857184918481842
1839184618451838183618491850185118501853184218471844184518361841183118321840182318251826182218301831183018441838184318361833184118291831183218341831181618241822182518201818181818361837183018331835183618391831183218281840184318431844186218561862184618461842184018501842184518401846184218401843185318471857185518551850184218421840184018441835183618311832182718241821184018371837184118531848184718511844184418391840183518331825181618061805179417851792179117971805182018241839183418211824180918171809180518071804180118071810182018241848185318531852185018491847184718461842184018341839182618311825182918221825182418201823182118221819182718241819181518151814180318051810181918351839183618361838183218341833182918271828182518261830182718241834183018441835182918351841183218281833183118331835182918401835183818301825182218201822183618521864185818531840183818411842183118281826182018121807181818281827182118131816182018091804179817901792178317861797181018151824181918241833183018321822182518261822181618171811180618041812180818121804182118241843184518471841182518151807180117931796180017951802181118151821181618211818181518101806180017921791179318151833183218311835183118351838183818351833183318311835183618361845184518461865186218641863185518591853185918491844184218381831184018311848184518401842183718381838183618311830182518201815181918091813181318221832182618301831182218331841183818521854185318501846183418331829184318361844184718451853185018551852186018621868188618841884189118731867186818721862186318591859185718581849185218501850185018471856185718521839184218331827182418221818182218271825181718271823182518161810181818081802180618091807180918111813180818061801180018091818182018181817182818291823182318231814182418211818182118141808181318151816181718141821181918131818181718201834184718551869187218651843183418241823181918121814181118151808181718241826182018191823181718141813181118071801180318041798180818061806180618051807180318011801179917921789179017941792179817981801180418081817181918201845184218381839183118181823180118101801179718121809180918171818181117991803180017941810181018241829182718371827182318241816181718101813181218001802179818001794179918001807179618051801180217951802179918051804180218041806180218071803179717971797179117931791180617981799180417981805181118061804180618031809180718141803180418001793179718011806181518171822183218271826182818101814181118071812180518161817181118121809181218041808182018251835183818251837182818281832182418191817182618131813181818161819181618171813181118161806180618011810180418111808181418051811180218091803180418041805180418101814180418151806181218111802181318131802181618151817181918291836182918421842184918461845184918461850185018421836184918411833183218301832183018301829183918311822183818351835183818521849184718461851185218531845184518391835182918311822182118261821181618151812180918161823181218121812180818111812180818081801180918031808180718141809180318161804180718061814180618091810181018001799179617931798179517991811181318201829182318221832182918241823182018261823182318231822182718191820183018301824182818301831182718291834183318421843185318481844183418391832183018291827182718231825182518251818182418291830182618251826182618181825182918241829182718231824181818221817182118261826183218291833183118291828182118211817182018191822183018351838183418421837184318371839183718351843183318421830183618331840184218471846185318581855185918551849183618441846183818481844184518391840184418451844184018411840183818371839183518351836183818321837184418341834183218331834184018441848184418411843184618411844184318431846184218531849184818451843184918441850184518461844184118461842184918471848185418521850185018441849184618531847184618471840184418451848184018431847184918461846184918451852184818491849184518481852185018561850185518541857185218581859185618561861185818621864186018581859186118661866186818691870186918661868186818691868187018671870187118691863186318611862186018611863185218611859186418601859185718591855185818651862186018691857186118621858
1854186118611859185718631866186118591860185518581864184818571853185418531857185318611860186118731859186118621867186518621829183318291833186818541860187118641864187418751872187118671866186318661873186918641855186118621859186318591861186318641856186118601858185318571854185118551854185718491860186318641857186118631858185918621867186418661865185618611862185818611857185718541849184818431846185518561853185818571858185918621866185818601861185118571860185718531857185418541856185318581852184918611856185418581851186218601860186418621856185218561859185818541851185318531851184818491854184218531850185318491846184718411850185018471856184318471846184718501843185018541850184518461843183918501839184418411843184518451844184218441839183618391851184618441842183618391838183918421841184018341841183918321838184118391841183918311836183418361831183418331835184018361832183518361843184518411833185218421843183818451845184718471840184818441840182518381836183718431839184118441850184418421846184618441843184618471854184618471844185318471845185418521842184318501845184818471851185218441845185318501849185218521853185918561850185118461845184218491847184718481849185418541851184518491849184618521848185018491846185318501846185118511851185018451847184718451848185218531845184718431848185218511851185718541848185018531849184718501852185118551846185118581858186318551852185618561855185518561856186018561858186518591863186618611862185818591859185718601856185618561857185618601859186818651862186118631862186418631865186218571861187418691869186318671867187318721874187218741871187518781878187918771877187718801878187418741879187318711876187218721871187718861883188418811880188118831883188018791876188318791883188318781887188718831884187418911876188518841882187918701879187918791876187218771882186918751875187618761882188218751883188518761886188818871882188618821884188418831886188518841877188018801885188018771885187718861881188218791877187718721874187518671870186518681865186518731871187018671874187218721867187418761871187318531871187318681867186518711864186418621858186718621863186318581857186018581861185618541854185118531850184818521852185618611852184618491848185618441845184418421843184118411844184618501835183818401847184118371837183718431844183418331841183818391838184018431843183918381838183218301838183018421837183318321835183918281831182918281829183318401830182918351832182918311835182818301824183118341821182518291829182518281825182418301823183118261822182818351832182518341824182618321825182718261817182218261830182418241821181518211821182618251818181718241818182118091821182118201823181518271820182118211825182218141816181018151819181518201816181218091817181718171817182118181817181218121807181618151818181218081809181418121812180818081808180418141807180718091810181218081808180618071809180318151809181118091812181118131801180718091808180618041809180918101808181118111815180918121806181218091809181818091812181718121813181418091811181418211814181518151812181218091815180318151814181218101810181118131815181118101810181518101809180818091807180918091808181018091805180218081805180918121808180618051808180618021805180117961799179417951800179817951799179618031793179917961799179918011795179717971793179617951794179917981796179717961801179518001797179818061800180018021799180417921806180718051815180218001808180218061795180017971794179917991801180418001799180318051809180518021803181018071806180918061801180117991803179618061801180417901797179417971802180418141819182818421839182418291817181518041810180017951795179717901784178917861797178517841785177817811771176717651768176517671766176717731770177417751778178017871794179218041802179717921785178117761776177817651760176917711771178117751791180218011812180918031802179617921791178817781778176917701769175617611762176317571751175317481749175217471743174617521749174917501747175917661767178017791774177617791786178517831787179017801788179318021812182118111807179217961796180218031801181218211823182018091802179217721767175917541748175717511752174417361735172017291721
1721172317181721171717121696169016731661164816351627161916131603159916021584157015591551154515441536152515021477144814411438143914341432146014881538157416061628163616321621159415821567156015511540153215201509149914881483146914541439142214091390138513711365135613491348135113531362136013751395139414051399140113941393138713791377137113711364136513651362136113661360136513631365136113621367137513881389140214041409141214191423143314301441144914441459146314781487149314991503151215181539153815431545155715541548155315561556155515591571157615921606161316241632164316521665167916951700171817291743174517371738173217371734172817301727173617371741174017321739173517291725171617181722171317221715171717211722172417261723173017251729173217351738174917491754175517641766176817621760176417561755175117471747174117471757175917621776177917881789179917941798180018061817182318261827183118451847185718621869186118651877187618721878187818801887188918891892189518891891189919031912191219251922192319221934193619391944194119351930193119241922192419251923192519251921192119221923191819191923191919131911190318931904187818801878186818661865187018551857185718531848184718451860185418541858186218641856186318571862185718511851184918341841183818371829182918221825182118151815181418141814181918251827181918201821181418051812180218071805180618041813180918101804181718051802180017951793179417931788179818101819182318381847185318531860185218521852184918481845184418431843184618481859185718611863186118611865186318651865186318691868187418611872186518661864186718631863186118641858185618561859185918491848185318491844185718531854185118511849183818371831183718311837183918491850185718561850185318611860187018521850184718411836183518251837182918281826183418401836183318361834184018421845184118451847185118501860185318551853185918601859185518541852185618561854185118491848184918441840184118421832183618331831183018401837184718451843183918311830182718261819182118281818181718211825182218251813182218171815181518091813181518141812181518141816182318201812181918171818181918231825182118271821182418241832183018341829182318311831182818381833183318401839183018431850184618471841184018451836183818351841183518391840183318421837184418441843184118451836182918301833182018241817181518281833182918331843183418371838183118361834183318301826182418191818181718181815182018271824182718281834183918351842184618421851185318531853185318571852185718611861185818651860186118591854185618581859185318551854184918501846184318481847184618471854185118581857185918571856185718521858185518511842184718421854183818341837183618291833182518211820181218091820180618111808180918031801179818011805180118111825183518421845185418561858186318591861186018581852186218491860185918571855185718541858185718551867185818611861185718521858185818611858186318591863185518521861186118631863186218621855185918571849186018531852185018471847185018521846184418501850185318521845184418481842183618381836182218201822182318171822181318211814181118171807181618161811182318231830183018351844185318491854185518521857185918581858185818551862185718581862185218581850186318571853184118541855185218561860185518501863186418691866186518611860186218601858186118661865185818571855185718481850185418481846184118411842184618441851184918501852185218571852186018621859185718591855185618591847184718461855184618431847185218521845184718481855185118501854185118491849184818441848183918471845185018511846184718501844184418331841183918511846184118451847184718491845184918481844184618311846183918401843183618441837184618461836184718391839183918351829183218321827182918201805180818021802180417981800179918101810181918211836183618461842184718431856184918521861185418601859186018601858187018701862185718601862186718701866186818761863186618651871186318621861186118621868186318611862186718631869186518651869186518621861185718541856184818581847185218461840184918481852184818491851184518461856184318371835183118261827182818201817181118151816181618181818181718091815182318151815182118191819181218161827182518281827
1827183718371840183518381837183718351833183418391835183718391838182818381830182318271827182317991805180518091829183418351831184018351840184418411841184418421843184118511847185118451844184818501850185118491849185118451856185418541852184618451845183618351828181618161811181218191823181918251832183918451847184818561857185818581862186418591864186418631863186318691865186718671866186418631864186118641868186018651859186118571861185818631857185318551854185418551854185418531848184118361835183618331834182918391831183418371833183518331841183918421840184018411842183518431841183418421841183718391836184018431851184818481854184718441849184518471845184518501846184818351836183418391834182618321820182418301824182618251831182818251819182118191824182318231823182918331822184018351840184018501849185318481853185418541855186118621857185818661856185618601865186918631866186318621859186018591858184918611859185818641860185818511859185818581859186418661867186418641857186418581863186218571859186018641859185918581859185418591865185818621857185918631863186218571865185718551852185418561850186018601855185818601856185218471860184918511852185418531851185818531849185518501844184118481846184218461846184918331843183718341835182818301837183718291835183418311837183018391837183618321833183618241823182018171809181318101796180217961794181018061809180318171815181518251825182718291837183318411842183918381849184718461840184418491848185318501850184618451852185418531851184818551855184718561851185318511845185418561844184318461843184118441852185718541855186618631862186218611859186618711874186918731870186118601855184818461842183918281828182918331831183418391845184618591861186518721865187418771876186618851882188218801879188718811880188018841884188518871881188218841883188818831884187818811882188018781871187518711870187018661861186118641857186018601867186518601858186418531864185718691858186618651862186418691862186718631866186518621872186818661862186418671864186318661857185518611859186118631856186518681859186218611861184918501853184918401832183118231820181918081813181118161818182018321838184218451852184918591852185618571856185818601866185718631863186118581863187218701866186818711867186918701866187018781867186818631876186418601855186218561856185318561858186018551857185718601857186418641867186018681865185518581861186418621858186618641861185518561857185418631851184418471846185018511850185618531852184918431851185718541850184918461849184618491847184018441841184318351841183418341837183218311833182418281821182318221814180818141806180417971798179417861793178917951791179318051796180218011800180018021793179017901791178317851780177217751771177117711779177617771785179717991800180618051811181318141817181318211818182518241826183018281826182418321824183318311834183818351837184118371835183218321839183218351840183618431837183718371833184118381839183818411844184318471839184318441842184318391831183118371833183118301828182318261826182018171818182418201808180718081807180618081811180918081819182518251832183518331841183618391844183818401842185018431846184518461847184118461841184318391843184618361832183618271832183218371832183418341835183218311829182718301826183618301831182818311824183318331829183518341829183318191824182918151824181218111814180818141817181918201818182418251825182918351838183118341831183318371833183718331831182918351828183118371837182818331841183318411833183518411837183918401842184118361835183518361835183518361830184318321836183318321841183718331836183818361832183718411834183718331832183918351831183318291822182018201813180918031801179317931791178917931794179717951803179718051805181018081803180518041800180518051797179717961801179217951795179417981795178817881790179417941790178517831779177717721775178517731773177017711772177017701768176117711765176717651772177117701771176917731775176617701765176817661772176717661755175217551736174417331731172417241717171417181705172317311732173917411755175217671764176817701771177917801777178317841784178417881788178317891791179018001797179417951793179517951792
1785179118011787178217901788178717871792178217871788179617911798179918031807180618101814181318151824182018091814182518231821182318241829182418281831182718271836183418361833183718331841183618411837184118461848184818441852184818491853185418531855186018541854185518481850185118441854184718491853185918461848185118521852185518501857185918551859185318541853185418581848186018571858185918601857185818601865186818741872187718811878188518801884188118791875188518801887188018811885189518801883187918901883187918711887188318861890188018801890188118841879188118731872187718721871187018651863186118591869185818581854185418491848185018481850184518491853185318481849184818391841183518341836182618291821181918201815181818191816181918091818182418141821182818201826182518251817182718241823182818221829181618261825181918211827181918171819182018271821181518221818181918161832182518251819182818281828182818351828183118261829183718281824183218291826182718271834183018301836183018251830183218281831182518381839183618381839183518311838183618371832183618391843184818391836184018401844184018361833182818331832182918331834183318341839183418321842183518451840184118441844184618531844184518481843185018461853185218441847185018531850185018541853185018501851185118491842184618461845184518461844184318411838183918361836183518291837183218411828183318261823182418241828182018261826182118181815181018131809181518151814181118081811180518121801180618041804179917971797179317951789179517921793179317911781178717881783178117781776176917721775177017721769177317651763176017671764176317691771177617711786177917771775178217831788178217861790178817871792179517851790180117971794179718071801180518121813180918131817181418181826181918241820182618181816182518241819182118191813182318191818182518231820182218191819182518231825182318241824182218261818182218221814181418161813181518211813181018171809181018061806180318101801180617991792179417941790179017891789178017801775178317801781177717761769176717601762175717471745174917421737173017211716171617081701169816921686168816771667166316561659165616371640162916241615162116181611161916231617162416131623161816241634163016411652165116581662166416691669167516831685168716941687169417031699170217061711171517161711172117251726172617241732173117331739174517411743174317411748174517521753174917581742175717561760175417701768176717721769177417771777178017791772178617821787178717811793178917931791179117961789179217911793178617941796179717871789179417961802179617961800179918041800180118061800179918051797180318061803180417961797180417951795179417941801179718041794179317931799180217981801180017981798180617981802180518031801180318051801180618081803180518101803180718041812181118111807180718061810180718161813181418121812182218111819181418111814181418161820181618221816182018231830182418281821182818271822182918281834182518171827182818371825183518351840183118371834183718401843184418321843184918471849184818531851185918561852185818671861186318631871187018721872186818741878187018781885187418841887187918841886188518871889189018881892189418961894189018831893189618991898190218941891189118971898190018951898189918971897189418981899189518921896189619121895189618971895190018981899189619031901189918981901189518991895189518941895189518971893189518921902189418991900189718921893189919021891188718901891188518901898189218921895188818991884188818841887188518841884188118701879188218771877188218791881188318691880187318771875187418751872186918741875186918681875187118611867187418661867187018721868186918621866187218651865186218631864187018641863186118681856186318611868186118601856186018611861186018611858186118621858185918601863185818591853185918571863186218581867186118651861186218581863186718611864186518631858186018621863186018641861186018641864186318631864186518651869187018741873187818611863186718671868187118731868187618751880186918811877188018691876187618791881188718851879188418821880188618841880188818851884188518841885188718891881188718861889188718851888187818811888188018871888188718801896188218851882
1880188718851886187818831881188218791881187918801880188218781882188418701876187418741879187718731867187518641869186118631863187218611867186518631859185118601861185318611859186718601850185918571856185518541862185318561856185218661854185118551859185518481858185418561859185018531859186118591850186018581859185718561861185818561863185618551856185718601864185718621852185618551861185518581857186218611853185518561857186318531861185618581858185218551850185818571853185718571860185818541856185618611856186118611862186218541866185718581857185318551853185218531849186018531851186618571856185118561852185318511858185118501856186118551853185218511850185118441849185218561853184718401845184918511845184518451845184618521845184518441845184818431843183818441841183918491842184018401840183318531840184218421833183618411842183718381838183418371836183018321832183518391835183418381840183318301835183518361827183018301830182918301832182818301833182918281826182318371823182818281829182118191824182618261824181718291828183318311834182618271827182818291828182618281819182318221822182818241824182318221821182118281826181918241825181718261826181718291825182118231813182718191827182118231816182618241818182118191818182518211818181818261820181818211829182318201824182518151820182018251817182518251827183018231827182418221825183018261829182718291827182518291831182218371829182718301833183318291828183318321828183118391836183318341827183518311834183418331840184418341834183918391842183718371836183618391837183918391837184418421836184018351843183918381838183518371837183018341830183518321838183718391833183518321832182718341829183318391838183718351836183518301834183218251838183518331830182818311835182818331837183018271835183518381836183418301839183718361838183518381833183318381846183718421840183418461838184518411843185218391836184318441842184018411844185018431842184118441841184718411850184018461842184218421849185018471843184618401851184618431838184118451842184118371846184518451841184418391846183818451846184418401844185118431831184718371842184618431843184718451851184918471848185118471849185318541845184718481852184218521850185218481851184918501852185118491850184618501848184518521854183718381849185018501848184718611847184818501850185118491843184618431851184718511842184318411849184618451849184018481848183218531844184318381841184018511841184818411841183818421826183618331847183318371835183218431835183618351836183418361834183318411831183718331830183818351829183818311830183218341833183718391824183018331832182818351829182718321829183518311829182318291833182918321831183318301830182418271829182418251829183518231830183018331826183418281832183318291822182318291832183118281828182618281829182318351822182818201825183318341825182918271827182418291829182918231830182818221829183018361830183018331822183318321836182918261833182518271836183418321834184118361831184018321837183618361837183318361837183718411833184418451834184118421839183918421842184118401842184318451840183418461840184418381837183718381842183618321835183818421834183718361835183018311828183318291833182718221824182518171826182218271817181918161822181518161817181218201818181418161813181218151802180818071804180918131810180918041806181117981808180318031807180318001804179618031802180418011809180418061808180418041805181418041802181018061805180718051802180718071808180618091803180418061805180918061800180318091807180617961800180518031798180218161803180818021809180418071806180618161803181117951812180318031802180318051802180618051804180218001803180718041797179418031805180218011800179518081797180018001798179717941803179718071794180417941800179917951807180217951798180218031800180617971798180018051798180118041802180718051803180618051804180118111808180518101810180818091815180918151804181518101819181518171813181918141809181318181817181918161817182218081818181618221821182218241818182418251829182418241818182518231830182418251824183318261829183118271828183018281832182518371826182918251836183318421830183418291835182718321837183718421837184018381839183718391841
1833183918391834183318381843184318311840184118411840183818371833184218371845184218431844184718411836184518391835183718451852183718351828183618441844184118401842183618461842184518381847185018561843185218501852185218481849185318521852184818481850185118541855184818481851185618531849184818511854184718531857185618561856185218511853185218531857185318561859185718581857187118611860185018631861186118581860185718671867186318581863186518661870186618661867186618641860186718671864186218671867186718621876187118691867186818751870187518701872186118711867186718711868186818681867186818591875186518711873186618691867186718691874186818631872186418691870187118671873187218711872186818691860187318691867187018691868188318721868187618691866187218701880187418771877187718701882187718761883188118741889188218871881188618801883189018891889189118891887188418951891189018911892189418931894190018941893189018851892189818901902189118941897189818971898189918971903190619031901190319031898190218991896189919001898189719001898190219031904189818951901190119061892190119031905189819021894189618941897190018981903189919051899189718921901190119011903189919011894190018991890189518981891189818991894189718961889189918921890189918911891190018911890189418921893189518891893188618881890188518851884188218821886187818891880187818781876187718781874187418731877187718701869186918691864187318671871186718621865186418621861186218561863185918671863185518561862185718581855185118581853184818541853184418521855185118501854185518511856185318451853185218561851184618541853185318511850185418581848185718441850185418561857185618511857185518581852185718581859185718551851186318611855186118681859186218611859185018631862186018611868186118611860186418641862186618651859185818631862185818621868186018571860185918611854185318631856186418581858185718551857185118541855185618531855185418481855185118531851184918541846185518471851184718461850185618511846184318511845185118491845184118421841185118401843184418381840183918411853183318491837183918431841184218501843184318391840183818461846183518401836184218381835183418411835184318451841183918391838183818401834182918321832183118301834183118361830182618331830183518331827182918251831183418281830182918271834182618271829182618241824182318231824182418341820182218201820182118191815182118141817181318171814181118151821181818121813181618071810181318141812181118121809181118061812180218111813181318151816181218101814180918121812181318061814181418131812181218201819181518141819181118241821181418211819182318201821182518161814182418201827182618231822183118251824183018321821182618291827182618211830183318241831182918301830183018231825183318341828182118301829183018321821182918221825182518231831182718281826182718261832182818291828183118241830182618311828183518251831182918341838183218321842183718341836183818361834183818381846183818381837183618371840183518421843184918471846184518481848185118461854185718471852185718581853185718531858186718631859185918591859185918591861185018561859185818601857185718461851185418581846185418531848184918551846185018511852185618531851184818551851184818491848185218521850185618511852186118481855185918631858186118541862186418631871186318641863186718691868187718671872187318751872187518801870187518771881187818811882189118831882189418881890188318941885188818951892188118901894189618901888190018891897189418951894189718891892189918951894189418971890189718941890189218921890189418921891188818971895189618961895189018891898189118961883189318981895188918901896189619001897189718961904190119051905189719011898190518991903190619011903190719111905190619071912190719121911191119151917191919171913191719111915191319201907191319081915192219201920192119131919191819331919191519211928192119171928193519191921192519291922192319211924192119211924192419231917192419261921192919181920192219211926191919121916191319211917191019141919192019191909191119081909191419071910191019081904190419071905190719071903190319071911190619031909190219031903190619011899190319041901190019071896190019001894189519021896
1897190018971895189219001901189618891887189718931895189118991891189118991895189618901887189518901896189218931888189218891887189018871890188818901889188718921886189018981886188118841877188318781886188018761887187518801880188118801881187218771878187718761871187118801876187518691872187118731873187218651870187218741864187018601867186018681869185818681867186418651865186818581852185718571861185718651865185718551856185618511849185618511859185718581847185418551851185618501845184818491848185218461852184618511867184418451854184818431850184518471841184318481847184718511840185118551848184618471851184518531842185018491846184718461853184318411843184718511838184918431840184718491846184218451844185018481845184418521847184618411854184718461846185118431848184318451844184918471841184318481845184418381845183918451833184518421842184718441840183118371843183718401839184118411836183918361835183918411838183218371832183418331830182818391833183318371829183818451833183318341838182818331831183518341837184118401831182818251830183018211832183418311826183118291832182418231820182318241821182418261824182118211820182518251821182518201824182218191817182118181810181918181817181218181816181818251818182018181824181918171821182018211830182418201823182318221821181218281822182618181816181218211820182018191820182118281813182218171820181618211817181918141828182418201821182118171815182318251828182018151818182218291820182018181823181818211827181418211826182518201823181818201826183218311826182318201823182518251824182418281823182318231819182418281821182418101825182018221819182418191820182418191829182118201821183018211823182318251828181418241820181818251820182418271823182818231827182718201822182618191825181918211831182618221827182518241827182018191822182218231815182018231826182518231821181818261824182118281826182018181825181818161830182418131819182118231812181018181813182218111811181118061808180418031801180217971805180018051809180517991809180718091814180018041818180918101811180317981803180418031794180118071807179818061811179718081800180118031790180617931798179117931792179717901804179417901788179517891792179317931792179017931788179317921795179617991790179217891794179617871790179617861798179417881789179017901792178717951792178917901797179117931793179217891798179417881799179617891787179517901792180117861798180017951795179717901794179117861788178617941786179217901788179017881781178317861782178417771783178517781783178117781780178217821780177717721778177517751773177217751773177117771768177417721776176717751770177017651765176117611765175717681763176317541755176117541760175517531756175517501756175417551748175217541744175617571745173817481751175117491741174017381741173517241734174017371741173317361725173117291730171917311729171817231722172017211721172317131715171517091715171017101702170717021708170917061709171016991707170717081705169416941697169316971687168616821686168116851680168216801678167516801677168016791681168416811683168116821690168416821683169216881689168916881685168816861686168516871678168716821684168316801687167416641674167416621658165016451639164116331632162416351627164016421642165616591661166316691673168016781689168916931697170216981699170417041704170717071708169717031705171117141712170817091711170617071711170917041715171317161711171017181707171017201707171317171709171117161708170817061707170817091715170917141711171917141708171317191714170917141717171217101718171417131713171517091706170317071704170717061701170317071697169816971692168716801685168116691672166916711667166416651667166816721673167616811676167616791683167716721675167516741679167116851675167616881682168216911687169016941690169016981697170317061710170717111715171717141714171317151713171117201720172217221729172217291731172717271729172917281732173417331730172517311739173717391737174117441744174617431741174717491744174617431748175317511754175417601754175517571758176217571756176417641753176717671765176917611764176317651769176517731770177217721773176917741775177417771772178217751780178317811783178417901786178617891792
1797179217911797179717941794179417951789177717851784177217741769177117691761176117611763175517671767177017731772179017901799180818181824183218301824183118381835183818311844184418471849185518421850184018491852184818551848184618521852185018481840184218521850185318461847185618521852185618491853185518541851185618651863186818811870187918831874187518751885189118831884188818831890188418801886188218741886189418921899189919011897189718991902190918971904190019051910191119121913190719141917191319171918192219161911190919051903190119001892187718871885187918811883187918821879187918811886188418921900190419031905190519161914191119251922191719211925192119281929192319371922193119321936193119311931193319341928193219371934193119241934193519371934193319301938193119311935193319341929193219281925192519271930192619231926192419301919192219231917191919241917192419201917191119231913192019111916191319111918191219051919190719141908191719141914191319171912191519131905190619051909191219111909190619051905190318991897189618951891189118911890188818881882188518951887189318931895189718971897190719031902190419051899190418961896189118881880187718671870186118571849185218591848185118521856186318681879186918791885188718941893189418951893189119001898189618981898190419031903190319081915190719101917192619211916192119191915191619141917191619031918190819101911190519091911190418991903190319021896190919111905190519021901189918971898190119051895190518951898189718961892189418951892190018951895189018951891188618891892188618931884189118851878188318811869188418821876188318761871186818701872187318731877187218771877188418751878188218831880187718741879188018751883187718711874186918711871186818601859184718571844184318351840184118381839183718431842184318491848184818521851185618501854184918491841184118401832183718401834183618411843184818431844184618521853186018621861186618671871187918741871187018711871187518661868186918741867187418711873186618651863185718591853184518521847185218441847184518451848185118561856185718591851185718511858185518551852185418511855184718521848184218471839183918341841183318381840183518281826183018291825182218151812180518071805179818051801179917971797179517911793178517881787179017861787178617871782179117841790178917921791179617921811180618071809181918171817181218161822181818071813181618121813181818031806180218021796179617991794179717951792179317951792178517921790178717881793179217881791179618001800180217941799179918081799180517991803180317971803179718001802180318021795179918061800179417931798180217961796180217981791179517971799180217951798179517891788179317951796179417941791178817931788178917871787178617861789178517871789178317791777177417791779178317851783177917831778177017601761174817481746174217391739174217351737173217401743174117521755176417621769177117711777177517781780178317881781179017901790177917891787178317901792179717901792179418011784179517971792178517941784178517891777178017791778177517691764177117671773176917621765176617571754176217591764175817641757175917621759176017641757175817521757175717611759176417621763177017731768177517811780178617901793179618011801180918071810180918221813181818171821181718121820182618151819180618151822181418111811180718091803180117991795178317841783178517781771177817741767177917851779179117921795180018021805180218041801181618011813180518111813180418101811180418091808180718011804180518071798180217891804179917901793179617971797179918021803180918061810180818031809180918021803180718141812180617981801179917951803179717941798179218011794179818011796180417991796179917961800179017981789178617881789178817931787179117951798179617991812180718081801180218051805180818051805180918181815182618261831183618361833183718451840184018441849184418481853185518491853185418531848185318541850185118511850184718481845184418441844184118431845184818531849185318521856186218651859186418661864186118541860185918511848184518461844184718461843184818421843184118311846183418261824182718271821181418051808179817961787178717841786178617861790178517841788178817901788
1794178717911798179318071806179917951790177717891795179017891786178917851781179217911785178717791773177317721776177117671763175817521743173617341736173917381739174117101715171717151712174117321737174117421737174417411746175417501756174517451750174817421741174317381743174117421734173917481745174117461755176017561753176317531759175717511754176217571765176017631759176117571755175417501754175517491750174217421743174017391740173117331730172717211726172217251730172917321735173617371747174817491747175417611758175517621755175817601766176017591760175617561755175717571761175617611762176117601758176817641757176017621763175717571758175617541747174417461741174317411737174017451741175117461744174117441743174717431741173317321734172717391735173717351741174617501760175217571761175917601761175817641766176517651768177317701765177317701767176017641765176517681762176617731771176717651768177017701767177617611769176617661759176117651760176717571764176017611759175717561759175317551760175317541755175517531757175217501749175017501755175617581760176617721781177417711768177117711770177317571763176317601756175817581750174817491748174917481747175217531757175317581772176917701772176617701768176917641767176517591770176517721765177117681772177117721771177717771772177217701769177417671770176317631764176017661755176217611767176617711772177717721775177417811773177817691779176717771773177717731777176917661774177217731770176517641770176317651767176717641770175917681773177217771778178217831779178017851789177817831778179117821781178517891787177717811779178417831794178117811780177017671773177017631764175817611753175917621755176217551758175917551757175817651760177317711773177517771774177717781770177717751771178117741772177017671765176417601764175717571751175017561749176117561773176617751778177917851785179217871787178717851779178617871788178917931789179317851791178917851783178717861784177617851788179317891788178717911788179417931788179217961790179217951788179317871790180217871789178217811778177617821781178317871788178717921798180218011798180918051802180318051802180117971797179717931803178917951799180117961800179818011799180518121811181018131817181918161815181418191819181718191821181418161819182018091818180918161814181618161817181018181814181718091816181018111796180017961793179117841781178117771779178317851782179417971806180618081819181918201824182018271817182118121806179617741755172717051677165516281603159015631565155815591558156315551562156915841600160616131625161916181607159815881572156515571542152415011479145914451427141214081405141314201424141714131410139813941389139213971397140513971392137013551340134713421362138914381480153115711624165216751694172017381736173817391729172017061707169817071713172317361765178518141839185618751884189218961895189518741857183518091777174617111679165016331627163216451657167116931702172817481759177417931797179317951793178617821776177417631753174817331728172517291736174717491765177917931803180018161812181718201821182318171803180818011793178817871788178417881791179918131822183618401835182418271828182018171816181318021797179017881784177517651777177717691784179117931785178417881778177717731769176917591763176617661772177917831783178317861794179617971791179917981800180018041804180318031797180217991795180518091810181618281829183818411847184718571849185118491847184818531851186618651872186218601855185818521849184618401838183818451843184018391836183218331829183718371844184618431838184718391840184118391842184418461849185518521857186318651878187918781884188718931894189618991900190819051907190919091904190318941897189918971892188518921893189618981893188719011885188718861884189318891890189919001904190319061908190519031904190018961904189818991892189319011900190819141923192219301927192819271924193619381933193819371936193619381928193719341933193519391940193219311930194119351937194819501943194919491947194819491951194919511957195419551954195219531954195019551950194819441939194419511941194719461943193819411940193619351935193419361937192819301922191719151909
1908191019131915190919171916191819091912191119121909191419111919191319161918191619231911192619221925192019211918191919201919191219151911190919191906190519141906190519061908189818951887188818911889189218911880187918771881187318711882187018731881187518781869187518781880187918771874186918721870187318751866187218751867187118711866187218701864186018651866186618631869186618701872187418741875187518751881188318791882188418841885188418871881187418741876186918601861186818701875187418781871187818821883188218901881188518891890188318821891188918911889188918921890188818861888189318941888188718871887188718911884189418901887188518901886188318871885188418831889189018811884189018831875187818731867186818771867186818651867187218681870186918681875186318731874187618791889188718871882188118881885188318841888188618821888189718931897189418921890189618911888189218911894188818811890188918881889189618891885188518801889188318791885188918821882187918851877188018811876187318741873187018901880187618731875187018701873187118681870186818761869187418711866186918661866186418631860185218581852185218531838184518461847184718421837183918451840184718391846184418451848184818451852185318451842184218431846184218451844184318431838183718351830183018311836183618341822182818341837183418331828183418371836184418381837183618381833183018371835183418331837184118411834183618321837183518331827182418361832182518341828184118411838183918371829183318311828183118331830183018331834183318371829183718341827181918271827182218271823181418201817182318141825182318221821182618201822182718251826181918181819182118121822182018261822182918231822182818231821181918201816182318271818182018231823182218251822181718161818181518111820180918041814181418191821181818171824181818211820182118201815182318141810181518141812181218141817180618111812181218231813180618111809181518021817181418131811181218151818181218101808180318061806181018121815181318111810181618091815180918011808181018131808181517971812181218001798180518011800180517981795180018011802180318081797179918071791179517971799180518031802180018001799180117971800179717931791179818001802179517881794180017961799180018031797180018021806179618121805180018021808178917991796180017941796179317991796179117851789178817931802179217961797179717961799179517991800180317961798180318031798179918021802179617971799180518031803180118041800180218091806180718081807181018091807181818121801181018111814181818091816181818121809180818161809181518201822181618151813181518191818181418201823181518151821181718181813181218151815181118161815181618141813181418151815182118211821181718191816181618221817181918181809181018271814182718261829182418331828182718251832183518261829183118251824182518311833182918221822182918311827182118311826183018291827183418221827182518271824182218221813182218261819182018371819182318211811183018271830182818221826182818261829182418341825182518331828182618291821182118191832182818241823182918251822182318251825181518241827182518261828182518271833182218251824182318241824182118191831182318231824182818241826182518181819181318231822182218171817181018151818181718111815181818171821182218201813182118201822182218111821182018181812181218171811182118131817181418171816181818161817181718131817181018091806181518161821181818131804181518161820181718191820181518171822182118191821182418241822182118241827181918161818181718181820181218101810180718141806180918101810180718061804181018081810180718161813181318051822180818101809181218191819181618141814182218101814181518121814181818141812180218151823181518171820182218091822182618151816181318141822181818161818181818111815180918231820181518201809181618201819182318201821181918191820182318171819182018191813180918181809180718091811180818141818181118131821181918141815182518211819181918251819181518211815182018241830182418191822182118281821181818181824182118281819182218221820181918161818181718211823182218221812182718231816181618251829182418271828182818251827182818291827183118311834182518261833183618321830183018281837182618311833183418381839183718381844
1837183618451847183118371837184018221834182518341831182918311831182418331835182218211826181918271826182418251829182818291831182518271831182818291827183718291835184118311833183718381837183218331841184318401844184318431845184518451837184018381837183618381845184518501849185618541850185918561872185518551857185418571851185518581856185318571836184518531852185018481846184418451849184318461851184618451846184818451841184618471845184518441855184518451848184818471849184318491839184318461840184218471845184018451841184118471835183718421836184418441843185118451839184718451847184618471854184918521848185118511856185018661852185818521851184718511844185118501852185618501853185218511846185618481843185318521847185718531860185218551854186318581851185118501851185818551844185418471850185018521851184218441850184418501846185118491851184518561849185518491850185318481849184718501850185518551853184918451848184418441850185618511846184918461846184518451837183918421843183818431843184018441846184318401843183818491841184918371842184218411842184618431847184418361843183818351834184218381833183718221838183618291833183318241838183418341831183318311833184418331831183418301837183418291836183018371836183918431839183818401837183818421845184018401843183818471837183718451837183918381839183318291839183718391830183118291837183518331832183918231828182318361830182518211821182718231820182818341828183018411839183718371830184318371839182718391825182318191815182518281834184718341842185318491856185218351835183318301826181718271826182218221814181518121813181018091814181318161812181118101810181218111817180818101808180418121799180118091808180018081814181518171810181218131821181318131820181718151810180618021800180218021808181018091823182118361835183218261834182618251819182218161818181618151820181618181822182418261837183918361837183218301830182418231824182418271823182218161817182018171812182218201819181618161817181518171823182218171820181718171829182818251818181918281832183218281832183318271832183318341832183518301826182218281826182918281817182218221823182418211825181718181816181318141819182118141812181418091807179618011792179717941794179517941804179917941792179518011793180417911791179717921797179917971797179917981813180518031805180518121810180618081802180218121816181518211814180618091804180018081797180217951796179017911796179717921793178517901788178317871781178617871783178617851792178317881786177217791776178217781778177317671778176717731778177417771783178017811783179317901790179517931786178117761764176417581757175817541765177317691774176617701765176917661762176217541754174217491750175017711773178117781789179617901787179117921792177217871779177717771779178317751777177417681772177517781776177517721776178017771775177917771777178117851773177817741776178417721775177817701780177817811775178017801784178017811790178517931788179017881795179017961794180017981794179617961806180217891792178917961789178417791778178417961799180918181823182518131814181118101811180618021802180218051808180117961792179417921786178317861786179118011804180417991801179717991795180117921798179117951792178917891797179017861786178517771779178217801787178917981801180417971799179217991796179717911794178517931787178817941791179517971800179918041805180518051800180918031803180317971800179717941799179217971797180217951793179117941795178717891790178517881790178917801781178217761775177317771779178017691770176417711768177917641773176717671765176317631762177117601763177017611762177017671767176317651765175917521751175717571769176317651767177317661763176317621761176017531758175717531762175617621754176617591756175417531749174617481746174817471752175117481744176117511753175117591761176117601759175517501750175717451749173917471746174517451753175217521751174917471744174317371744174517601759176617651768176817681774176017661765176917691773177017741772177217751776177517771778177817791778178317821779178217821789179217921798178217921786179417901785178717941790179217871793178817931783178117801775178618001790178918001804180218021808180118071798
1795180318031807180918021803180718051796179618021802180017951811181018121813181318111817181118111806181018131806181318131811181418141806181718111811181818151818180818101812181118051811181018001809181018091809180017971793180218031806180418041808181218111813180518131805180818081801180418051800180618051808180418081811181518121820182318211826181318281828182518241824183118291832182418241829182418351828182818291827183418291834182918291828183218281827182918301827183018361834182818321832184018331831183218341833183618291836183718341835183318441839183418321838184218431841184018431840183218411836183518301832182618281831182218221818183118241819183018231831183218271832182418301836183218261832181918211820182018231813181418101802180518131811182018161814181118191812180418161810180717991809180818051806180718041800179818001795179417961797179117961789179517851794179017861788179217851782178617711761175917571757176117711780178117861786178017751772177017531763176017531761175617541753176117571760175217491753174817471750174917531744174617451750174717421740174017461737173817401733173617351733173917371736174117221727173817331728172517241721172017231723172617261720172717291722171717231722172517191718171617181714171817161714171917121719171917151714170517121704170617041705172117071715171217111714170217181707171217121714171317151714172517261715171917271729173117231723172017181720171917221714171917201708170817121717171517141715171217121714171717151719171217181715171417141715172617151722171717221719171517141710171117161720171917171723171717211718171917261719172417281728172117211724173117261726173117291720172217331729173517451740174717431743174417391746174517481746174217461743174317451744174917451757174917611754175417581766176117651758175317551759175917551754176417511766176717691763176117631767176317691773176317671769176917601770176417691761177217701776177417831794179717851785179417861783178217851790178217831785178817841792179217861787179817921793178917941796179817961801180118101807180018121808181218131819180618151812181418241820182118111821181918181818182118131829182418271822182618291831182418241828182418221817182818261821183018371837183418261837183218241836182718341835183418381841183818341833183718421842183918421840184618361842183918381842183818411845184618431844184818481851184818511849185118491854184918601855186018591858184118661848185518561862186318691867185918661864185818641862186318561853186518631861185918571860186118531859186418531862187018601863186918561870186718641859186118641861186018551857186718631871186018631861186518671873187418701873187418641867187218731866187618761872187018731871187618751872187418781876187118721872187618751869187618651869186918741873188218771880187818781877188018761876187718861881187118801882188518831878188318791877188818821885188718831885188518821889188318861887188718821884188618871883188718941888189418901887189018891886189318971885188618971886188818951893189718921893189318931894189218991894189619081895189018861892189318991894190419001905190318991909190419101906190519111907191319141901191019061911191019081912191219131914191719121912192019101921191219191913191319181918191719191921191619191917191819161914191519151921191819151915190719261921191819181917191419201919191519221917191819211918191719131918192119171911191419071914191119141916191619181919191719241908191819171919191919201918191519131914192019051909190819071913191119161909190919121912191319071907191119091912190919061902191119041906190519061897190319021906190119011894190419001912190219021905190919141904190819061909190119071905190118951903190218991894190218961895189318951897189518911889189618891890189718921895189518941893188718811886188418851892188518861888188418901879188318881888188718751890188618871882188418981884188518851887188318841883188118801882187818921884188518831882188318831890188318841884188918821882188918801882188918791878188418831883188118861884188218851890189018891884187918831890189518901893189018951890189118881886189318921887189318921892189218931893189418951901
1898189519011895189718981905190519011900190318941899189918931891189919051899189819051902190519031903190119051900191519021872187918651870187319081905190519061901190119041892190119111907190919101902191119051910190419071902191219111921191319111924191419191921191619261923192519281927192419291927193119301938193319321927193119321929193019301928193019341928193019331932194019331936193519291937193219241933193719291935193619411947194819381942194719451938194119441942194919481950195019481946194919481947195019441950194619461939194219481942194319411948195219431948194919461945194819531950194119501955195619561958195819531956194719531953194919561955195819511953196119551955194719541953195419521947195019551948194719401954194619401944193519301933193119271929193219311925193419341931192419351942192819321940192519351932192719341924193119301931192919331934193219341935192619261930193119271933193219271931192519251932192419261926192419291929193219291928192719251931192719211926192819231919192919221916192319221923191719161917192219221921191319111904191719071905190519071911190118951907190219061902189919011895190119021894189918961907189519001897190518981899189918901897189418881885188218881890187918821880187618741874187718831879188118851879187418711879187618771879187518751870187518731875187018661867186818671866186318611857187118651860185818631869185818561853185818531853185118531855184518491840184618451843184918411846183818441836183118321827183218311832182718291828183318251827182118211822180918151819181618101814181318131804181018131807180018031797180418071794180918001804180118001799179918001803179517961792179917951792179217891788178717851785178517851786178017821777177017791774177817761774177517761773176517691770177117631771176317631765176517681768176917571761176117631763175617571756174917451747174917471740174317491748174817491745173917411744174717451741174117461746174117401735174017421736173717401733173617321731172917261722172417201725173017301734173517411737173617321737173217321729173417341733173117241735173017251727173717311730172717331728172517321727171717331728172617311732172317231725172417231734172217291724171917311724173117301729173417291734173517331733173717341744173317341736173217431735173917381742174117391737173917481746174217471742174217401742174517381751174517481746173417431736174617401753174117441744173517481746173617461739174217411740174817431738173917421744173717431738174017441737173117341736174017391741174217361743173817291740173917431734173717331737174117411736173017361740174417351737173917291737173717331738173717361744175117601772178717911798180418001793178717751769175417511742174917431738172717241725171417141715171017091708170617111704169716971694170016981695170716961705171517131720171917241725173317321732173317421734173417361733172917241724172117191720171517161721172317201719171917291729173017281731173417281723172517141719171117211710171317161712171117171717171217221718172417221727172917171717170917191706170717031712171217081706170617031705170717061705170517101705170217091708171317071717171317211728172817291732173317361731173917411740174817641766178317911808181218311826183118351821180717911775178017711756176017521748174417371732172517211714170917071690168116791673166516531651163916301639163516321633163116351634163216361631163216341630162716411619161816131619161016071600160316001594159516021599159715931603159716001598159315921586158315821568156815611551154615461537153015271520151615061507150115061495149315011495149915011497150315001510150315101517152415371551156315741581159616061614162416331632164216581662166716731678169816901698170317041713171917271728174417401746175417651758177217661777178017831788179117901792178817861794179617941797179517971795180217991799180418001809180518111806181218071807180118101819181618101817182218201816181918261829183018311835183918431842184818491847185118521855185718511855186118611858186618661873186218661860187218701871186918901879188218811881188618851882189118901897189018941895190019011889189618981902190218971901
1899190419011905191419001900191119061906190119131916191419111914190919111916191619171921191219141916191519091917191119121892188118841880188519171906190819131917191819201917193119171920192019211923192219181928192819231929192119261929192419221931192919271928193519231929192219271925192719261922191719211915191819171918192219211916191219111911191319021909191319111907191719121908190919041911190919101908191019161907190719011902190119001901190119031903189619011900189018901900188718951895189418881895189718881893189218911886188318931890188718871883187218701865186418601851184618481845185018591870187618841889189919091914190419171915191219191920192419221929193419361930193619351936193619391932194519411942194619391949194419461949195719601962195719651965196919611970196719811971197019721968196719611961196019551958196319591959195819661971196019711968196719671964196619601956195019531950193919411948196219501955195619571961196019561965196419661958196719661971197119631969196619631965196319651962196019661970196619661967196619691970197019671969196719691969197319721975196819761970196519711968197419641967197219731967196619681968196419691972196519661969196119651960196119631961196419561962195419541947194319441935193419341935191819181921191519121914191419131910191719171929192719321934193219431947194719531952195019531959195719691962196519591966195919681966196619731972196919701970197519751973198119741969196719781970197219751969196919771971198019691980196819791976198719731973197419761976197819771971196919711971197919721977197219791971198019811971197819761969197619741973196519771973197319701977197219671962196519651964195819601963196019581952194519531943194219451951194919591968197219711976196819801984198319851982198619961987199119871991198919901995198719941989198819891987198319851989198619891982198319781985198119791980197319751972196419721969196719621961196519581959195719531954195019491950194519431943193819471950193819441942193919341927193419311931193919271930192519291924192019221914190519031900189318951891188518851881188918911893189618951890189218971895189518921895189018961897190019091904190219061901190019011899189419011898190418981898190118981903189418941887189118941891189618821894188618911890189218861890189018871886188318761882188318811887187818761871187518751873187318711865186318651862186318571856185618651851185018461850184518411836183818421848184518501848184618491843184718471842184818491845185318511849185018551849184718491848184918471848184818511851185518431845185118441849184318491845184718461858185718451843183518421843184318341836184118371837183818411845184518431834183118311821182218221816181218121808181218141808182018211820182818211826183018321833183718321834183418431841184118421843184218461845183618361850183918381842183518381844184118351836183918381837183218361840183918311835183518291832183218351838184218331836184718411842183518421840184018391838183718411835183918351837184218391839184618381841184018391840183718381838183318321837183718331835183118331838183518281831183118291827182018291824181618201817181618191811181118161824181718231823182718281825182318191833182418321832182918331832183818361836183618391841183818391841183718461842185118571846185618541849185118591866185718571864185018511851184818471842185318451840183618421838185018441847183818471835184318381828183118341829182818231820181618131815182018111817181818201825182418251827182618241829182418291831182818261827183218341833183218331836183418301821182418261829182018201826182318191816181718191812181918161806181618141815181318191818182418321835184718361842184218431844184218431841184818531848184618491843184118431838184518441839183818361840184218341840183718311833183418321831182518241824182918251825183318271825181918241829182818281826182518181816181618151809180918041809180018071805180518101805182118161821182018221821181318171817181618081801180818151808181018001808180218101803180218091815181718141809181618131821181318201819181718151816182318171818181618171819182118181813181618131816183218131824181318131817
1820181118051812182018191819181618051807179118031804180017991801179618021807180418061802181418101806181218081805179718081802177517691765176717921798179517951797179818001801179717931797180118081808180018011797180817941799179318001808180018051821180518091808180118081803180618011796179117941788178917931783178017771780178217871791180218031796179918051798180618081800180618111815181918101819181518151807181118131818180818201810180818191804181118081806180317981810180318071810180618091810181418131816182118231823182618301834183018321823182218251820182118161819181018041808180618021804179918031805180317981796180618011795180218001798180218011800179817921793178717901787177817811774178617911775179017871787178917951793179818011799180618011801180417991813180418061812180818001795180118021799179917971795179317931799179617911802180118031803180618101805180418031799181018081810180518021805180418051801180617991799179917991799179717991797179918001797179518061810180918111810179718041807180418001800179918031797179818111801181218141812181018141813181618091814181718241814181818101806181418091806180618071809180018091794180018031798180218021802180318071804179218071803179517931794179017971790179217911783177617941790179117951790179317911790179117891796179117961795180017931795179117971793180017971799179817971796180017981791179717961801179617951796179817961795179017981788179417971797179117931798179117911791179517901789179417961788179317961791179417941795179017881803179317971795179517931782179217931793179317951792179117871792178717871784178717851787178317811785177817781777177117781778176817731771176717761771176517641762176717611761176117561755176417511754174917481745175117451749175517471743174317431741173717381742173917401738174117421740174417441741174117481741174117441743174717461744175317491743174617501748175417491762175617521753176017601764176417671769176817651768177417691774177717701784177817851785178517861799180017981798179918051809181018151812181618181824182618311833182318361845184518441859185118531857185518541865186218721871187818721873188418921896189719081914190919151919192619191927194219441944194619531962196819701968198219831988198920032004200420112017201820252022202820302035203420452049205620602068204920722063207620772071207920832079208020852080207420802068206920672065206320602053205520582048205120432044204120462039202920292023203220262026202120272015201520122006200420041999200019931999198819931987198919851985198119811977197519741974197019661964195919641964196419611956195619601953196319521954195219521946194919451943194819441943194219411927192619321928192119201917192119181915190819071899189818971893189218941884187918801877188118691876186718661863186618631853186318561856184918511846184618491842184118431843184118411850184418351838183118351833183418271828182618271825182518311824182918201823182518211822181118191811181718141811181418051807181118081803180718091804180017951801179117941793179217911793178717831786178817851781179017791775177217761777177317751772177217721768176917731771176417741770176917641768176417691763176717671763175717621767176717561762176517611756175917561762175317581758175617551757175417591754175517491759174917511751175117421747174217511746174717481747174017341740174017291730173217361735173317361729172317291738173017261723172817281727172917251719173217301729173217281723173517341731173317241729173117321726172917321739173417351736173117351738173217321736173217351733173617431743174017381727173517311741173217371733173617351734173517331736173717451735173817331738173917421740173817381737172817391737174717401740174117461736173917411742173217431737174117391742174217391745174317451743174317401744174017421746174617411745174617401746174017381744174417381745174417381748174817421746175117411746174217401745173717391742173917451737174517461740174117441743174217471739174417401742174217381740173717341747173317351734173817331737173217331734173617281729173317251727172317291716172617201717171117241720172017201720171817181718171017171715171117091711171917071711
1705171417021709171517081709170516981693169817001696170217011691169416921697168716981689169216911698168816891688169116891687168416851682168216771673168216781674167816701679167716711676166916721666167116621672166116661668166716621664167116651665167016681660166616641654166516661658165316651655165516521659165716551652166116541657165816551654165316561655165316531650165516511659165516591660165316571653165316571659165516561662165816581660166016611659166516651657166716661660166516641668166816691670167316771676168016691673167716781679167916851687168116841686168816821689169216961693169516941695170217011696170117041708171117101710171217181726172717281729172417301737173717391748173917401753174017571759176117541766176717751770177417711779178617811786179117921789179617961804180818061809181218071809180918161814181518191825182518241828182418231834183718321828183118371839183718421846185118521852185318451849185718641863186018661867186718661875187018791875188218791880188318811883188418941897189819031901190218961915190619091911191319101921191919181927192619241927193319251939194019431934193819361943194619441947194719481952194319591952195319561950195919621965196019521963196119661962196719671964196519721964196619641960196419651968197519671965197019681969196519691965196519631963196019571963196019601964196219591957195319521953194719541947195519521951195119471946193919411942194119431939193619411940193819371938192919281933192319201936193219301924191919251924192119131911192319111915191519151915191319111913191019101912191319051910190819101900190418981903190119011894189518891895189418951888189418931889189318911884189218921885189018871891188718921885188518831881188918951884188418831888188218821880188918791881188618791882189318841880188218811880188318821876188418771875187518851878187418781866188418791878187818791877187318711874187218701875187618651864187918711867187118681876186818691871186618621869186518671870186018661861185718571862185718531861186218681863186018561854185118561858186318541849185618551858185118491843185018491852184418591851185218441855184418381857185618531844185118401843183918501854184318371844184718471844184618361845184418491837184218371843184918441843183718431839183718381832184018401838183218351838184018271841183818401840183518331831183418381829183718361841184318381837183518401836183618271840183618311842183918391829183918371842183418341839183918391833183418351834183218341833183318301831183518321829183118331837183118251837183218331829182818371833182918211827183118311829182518241827182118271821182518261825182318191828182018311831183018271831182518311831183718281839182918331825183418381832183518361834183418401834183118371837182618341834183618371833183918341829183018321832183618361835183218311838182618261829183218321833183418281828183618321833183318341834183718331828182718251828183018251826182618311831183818301826182718301837182718291835183418311823182418291830182918261831183118301826182718301832182418371823183818281822183418281832182818281829182418241833182718241825182518181823182518291826182918171816183218271828182518241829182318241829182118211827182118251826182018241817181918251821181518221819181718201826182518221825182018241820182218211818181418191820181818221823182518241819182418201822182418211816182018241819181818121813182018231818181618211819181718151816181618151822182518191816181618091817181618221816182018201823181518181814181518211811181618111816181818201820181218181814181818151818181818161817181518151814181918221812181918151814181418101818181318181817181518171814182518121817181218151816180618151814180818121815181218201811181718151816181618121812181818161815181118141812181818111805181718161811181718141815181518151812182018081815181418211815180718111817181318171815181018201816180918201813181318141818181518171818181118151815181218181813181518181817180718101813181618141813181818201812181218161818181118141815181518131822181318201814181518161807181418181821181418121815181618141816181718201811181218121816181318121817181518161816182018141811